14602:1 2344:1
23602:1 1461:1 9141:1 21225:1 7348:1
17890:1 16164:1
17460:1 20880:1 19277:1
1534:1 12471:1 16294:1
25010:1 7728:1 4570:1 13143:1 25890:1 3265:1
15989:1 24450:1 12683:1
26363:1 23043:1
12:1 23896:1 21654:1 2853:1
21274:1 12471:1 17432:1 13196:1 13843:1
6377:1 26363:1
21830:1 26963:1 21831:1 28405:1 24254:1
16224:1 11719:1 25656:1
16872:1 16360:1 8133:1 12184:1
128:1 12471:1 2324:1 8136:1 13843:1
6739:1 801:1 24499:1 4897:1 220:1 7348:1
27759:1 17530:1 26410:1 21879:1
27759:1 24301:3 12854:1 19069:1
23970:1 19187:1 16224:1 8772:1 429:1 11878:1
4244:1 13046:1 11405:1
15866:1 4128:1 9517:1
24301:4 14828:1
19744:1 8730:1 23991:1 8292:1 18889:1 10981:1 220:1 22803:1
19019:1 788:1 21613:1 25600:1 27946:1 220:1
28311:1 4294:1 7728:1
23824:1 2579:1 12471:1 13843:1
2475:1 19277:1
2197:1 19751:1
15776:1 15892:1 27700:1 27759:1 2015:1 21464:1 823:1 28395:1
10901:1 27533:1 25536:1 5378:1 220:1 20903:1
5994:1 7834:1 15243:1
18793:1 12471:1 16224:1 12658:1 12833:1 27853:1 2316:1 16553:1 22206:1
3114:1 24499:1 9404:1 12471:1 6091:1
6818:1 3484:1 11908:1 10444:1 1297:1 22960:1
18667:1 16938:1 19266:1 22581:1 24180:1 17666:1
686:1 15434:1 22234:1 4206:1 21269:1 14787:1 220:1 6514:1
16751:1 414:1 13926:1 11173:1 23567:1
19264:2 14343:1 8187:1 220:1 19001:1
4800:1 12471:1 12326:1 601:1 19211:1 13843:1
1874:1 9690:1 13970:1 2579:1 1248:1 6794:1 9650:1
2853:1 5641:1 12635:1 11619:1
14343:1 28780:1 3666:1
1976:1 9371:1 11619:1 19210:1 1814:1 22299:1 220:1 27520:1
25871:1 26748:1 17987:1 220:1 23099:1
20874:1 26611:1 994:1 1297:1
7348:1 4163:1 21515:1 19061:1
28395:1 26363:1 9356:1
439:1 16472:1 16879:1 12471:1 21237:1
8551:1 19314:1
22905:1 26963:1 14213:1 17270:1 307:1 16553:1
10901:1 20992:1 9572:1 23946:1 14928:1 8169:1 220:1 28065:1
20305:1 24301:1 16588:1 20812:1 22158:1 26251:1 19709:1 10444:1 220:1
11104:1 12471:1 13843:1
23773:1 2329:1
25010:1 27920:1 10444:1 13887:1 15730:1
6274:1 12471:2 6101:1 19815:1 21447:1 19018:3 220:1
12471:1 21290:1 6068:1 25369:1 5455:1 20807:1
38:1 8748:1 11464:1 4705:1 5398:1 9639:1 22960:1
12:1 10685:1 23896:1
10058:1 8857:1 18608:1 2121:1 19771:1 23598:1 2094:1 1419:1 5198:1 220:1
1446:1 14381:1
24097:1 11139:1 24499:1 12791:1 28186:1
26890:1 891:1 3720:1
14112:1 25689:1 9931:1 13199:1 23984:1 19880:1 6347:1
23939:1 10729:1 220:1 6022:1
12471:1 15856:1 4163:1 8959:1 21265:1 7956:1
16247:1 9244:1
28281:1 14502:1 8369:1 9406:1 10884:1
21384:1 21613:1 16435:1 7409:1 4266:1
26360:1 10036:1 10493:1 26860:1 1992:1
220:1 22234:1 22999:1 3589:1 16727:1
8400:1 20645:1 7412:1 1297:1 14502:1 220:1
22987:1 11619:1 16770:1
686:1 24459:1 12658:1 19151:1 20728:1 9166:1
16339:1 27218:1 13046:1 2928:1
20904:1 16017:1
8215:1 4801:1 25926:1 8826:1 25528:1
10329:1 5981:1 22855:1 1002:1
10901:1 24653:1
14645:1 12471:1 18817:1 220:1
12278:1 4332:1 20403:1 11711:1 10271:1 24499:1 21797:1 220:1
16224:1 3894:1 14380:1 15869:1 24367:1 13317:1 8533:1 15902:1 6347:1
27712:1 12471:1 220:1 18166:1 23771:1 19937:1
686:1 26363:1 16689:1 7348:1 14793:1 26893:1
27142:1 25312:1 26363:1 4163:1 11104:1 22139:1 17710:1 220:1 16707:1
3704:1 23089:1 25435:1 220:1 1287:1
11171:1 2325:1
20874:1 24499:1 21498:1 14281:1
22895:1 8804:2 4163:1
12634:1 14399:1 7432:1 3546:1 24499:1 23360:1
22166:1 19884:1 7009:1 14986:1 11619:1 25600:1 7241:1 24458:1 12471:1 7107:1 13843:1
19809:1 12471:3 2810:1 28664:1 21882:1 9662:1
4854:1 20997:1 18135:1 11022:1 10091:1
7343:1 12471:2 9948:1 2810:1 4538:1 10895:1
25105:1 5256:1 20921:1 13926:1 7939:1 27230:1
22848:1 18667:1 11619:1
21484:1 14700:1 20207:1 11689:1 3237:1 220:1
17881:1 23242:1 21983:1 25010:1 19653:1 13300:1 15576:1
9030:1 23358:1 13774:1 4770:1 17700:1 15719:1 24499:1 220:1
6705:1 13243:1
776:1 12731:1
16211:1 26199:1 12471:1 15802:1 13065:1 27759:1 17275:1
17466:1 25629:1 3190:1
21274:1 17426:1 14689:1 5452:1
18589:1 13912:1 28417:1 19314:1 20010:1
20162:1 17710:1 10597:1 23381:1 6823:1 16374:1 762:1 20605:1
13749:1 21610:1 12658:1
12471:1 2683:1 11619:1 9203:1 13843:1 24944:1 24499:1 9087:1 6183:1 25547:1
1976:1 25236:1
19884:1 439:1 20728:1 23427:1 4274:1 2316:1 15836:1
25790:1 12471:1 24494:1 11619:1 20242:1 25519:1 9187:1 2700:1 22206:1 2121:1
25600:1 24499:1 6020:1 24982:1 686:1
6698:1 19154:1
17475:1 14525:1 2853:1
2769:1 20281:1 17931:1
6371:1 20992:1 27837:1 11094:1 12564:1 1296:1 220:1 6651:1
5456:1 6682:1
439:1 15554:1
7087:1 28673:1 23034:1 24722:1
26066:1 15222:1 7234:1 7109:1 8691:1 15367:1 20098:1
10600:1 6923:1 24301:1 4163:1 21590:1 4847:1 10444:1 9272:1 26247:1
25312:1 19305:1 15253:1
1620:1 14714:1 25267:1 25887:1 21464:1 220:1
28027:1 15885:1
14020:1 24301:1 9364:1 6000:1 503:1 10444:1 12277:1 17241:1 6861:1 12471:2 1121:1 16400:1 20342:1 220:1
9772:1 6420:1
26363:2 20719:1
23296:1 10907:1 10277:1 18961:1 15069:1
12471:1 13492:1 13901:1 18366:1 20207:1 15427:1
16995:1 25318:1 12471:1 14891:1
22045:1 7885:1 21149:1 9133:1 9655:1
6130:1 27869:1 2372:1 24499:1 6183:1 28188:1
6098:1 1121:1 9982:1 7972:1 25010:1 10444:1
12852:1 4163:1 14397:1 8959:1 13926:1 26363:1 22418:1
15130:1 6076:1 17317:1 11619:1 7728:1
22848:1 18667:1
23040:1 18710:1 8692:1 12471:1 15802:1 27521:1 13843:1 13300:1 17666:1
17205:1 27733:1
5678:1 12745:1 15140:1 5913:1 26829:1 26248:1 27742:1 18569:1 6396:1
15714:1 16073:1 20307:1 19924:1 20273:1 27015:1 24582:1 220:1
22855:1 23841:1
21274:1 13196:1
25776:1 23296:1 12854:1 687:1 11961:1
22234:1 8878:1 21966:1
19264:1 12471:1 13491:1 21433:1 28763:1 15296:1 2579:1 9396:1 22206:1
19263:1 27709:1 20129:1 5499:1 23967:1 4163:1 24929:1
7935:1 10615:1 21881:1 17623:1
7012:1 4238:1 12027:1 15650:1 26051:1 26893:1
4932:1 25611:1
21493:1 8448:1 24126:1
19216:1 20728:1 28554:1 16073:1
16379:1 21338:1
20345:1 24499:1 15997:1 13300:1
10568:1 12068:1 14089:1
21265:1 2739:1
3385:1 12726:1 28468:1 686:1 23673:1 7100:1 7203:1
7502:1 3046:1 11961:1 14502:1 17475:1
27142:1 26363:1 12471:1 21613:1 11104:1 15352:1 14524:1 220:1
22311:1 23672:1 22164:1 18230:1 10444:1 24996:1 220:1
10669:1 22434:1 9453:1 25543:1 25334:1
1611:1 2914:1
26963:1 17064:1 23062:1 23837:1 19838:1 11815:1 10444:1
2197:1 13055:1 3572:1 7412:1 7939:1 220:1 3963:1
9391:1 15837:1 2582:1 21613:1 2579:1 13926:1 9756:1 220:1 4643:1
3507:1 2579:1 27376:1
21613:1 24565:1 2579:1 3590:1 4643:1
686:1 19924:1
28625:1 12390:1 24838:1
10061:1 0:1 8833:1 24742:1
10884:1 14881:1
776:1 12731:1
15130:1 16224:1 10277:1 9265:1 4146:1 11104:1
28654:1 19269:1 14618:1
24301:3 15393:1 1616:1 3051:1
2328:1 2579:1 5457:1
26363:1 9019:1
22885:1 26406:1 1297:2 24459:1 23606:1
17466:1 8307:1 2197:1 24459:1 11022:1 9820:1 28506:1 21402:1 220:1 16750:1
26199:1 17275:1
19809:1 16224:1 12471:1 20313:1 2810:1 1378:1 27327:1 24499:1 9655:1
11808:1 3385:1 16836:1 2810:1 5199:1 601:1
2127:1 24517:1 11953:1
20904:1 8356:1 6494:1 12996:1
1908:1 6269:1 22325:1
11830:1 10521:1 21363:1
8932:1 12888:1 10444:1 20983:1 20874:1
21661:1 28027:1 2197:2 19320:1 24459:1 17241:1 19911:1 6163:1 220:1 20874:1 28506:1 16750:1
4319:1 7748:1 1253:1
12384:1 14343:1
23939:1 24529:1
21935:1 24413:1 12629:1 17668:1 18244:1
9772:1 24499:2 12471:1
2450:1 855:1
15452:1 14582:1
21661:1 22721:1 1701:1 24681:1 10444:1 7110:1 16155:1
9452:1 12471:1 28716:1 27526:1 23298:1 23396:1 220:1
25105:1 19212:1 18843:1
10734:1 12407:1 15488:1 5499:1 23727:1 220:1
27142:1 24529:1 21235:1 18195:1 14793:1 220:1
10058:1 19615:1
3225:1 23430:1
19745:1 12638:1 21518:1
19751:1 12471:1 11019:1 1712:1 3328:1 12658:1 10465:1 220:1 12650:1
776:1 12731:1
13655:1 22075:1 1155:1 8136:1
9179:1 22055:1 23813:1 12471:3 2810:1 28482:1 3548:1 16190:1
24301:3 15393:1
5393:1 10238:1 28621:1 23778:1 10970:1
8151:1 2810:1 19062:1 27314:1 26508:1 13887:1
12782:1 16083:1 26999:1 18968:1 24664:1 27015:1
13843:1 12471:1 4200:1 12445:1 21290:1
14420:1 14886:1
18191:1 19659:1 16452:1 19902:1 5645:1
19250:1 12209:1 24499:1 7412:1 20068:1
12177:1 20987:1
28395:1 13207:1 11619:1 6309:1 25010:1 21319:1 10587:1
20874:1 14281:1 5452:1 16224:1
14720:1 18270:1 28536:1 4238:1
12471:1 62:1 15432:1 306:1 24:1 27903:1 13669:1 27086:1
2299:1 687:1 24913:1 11092:1 9406:1 28522:1 9166:1
2683:1 18058:1 23824:1 23296:1 13650:1 11472:1 13300:1
25105:1 25902:1 12471:2 22251:1 7264:1 15352:1 28126:1 27272:1 220:1
12471:1 26463:1 6007:1 24205:1 21186:1 24499:1 18924:1 13843:1
12658:1 4195:1
23302:1 8519:1
5738:1 16200:1 15177:1 1522:1 12954:1
12658:1 6113:1 6292:1 16241:1
23745:1 12471:1 13843:1 2579:1 4643:1 8465:1
6396:1 18825:1 14041:1 3589:1 18569:1 25364:1 24520:1 10444:1 220:1 15836:1
26826:1 3569:1 17241:1 12134:1 25110:1 15836:1
9639:1 13691:1
21879:1 16588:1 18095:1 11284:1 17057:1
28027:1 15885:1
18140:1 28676:1 23860:1 12279:1
20273:1 24499:1 1714:1 9817:1 26060:1
15866:1 28591:1 16445:2 1655:1 2050:1 20162:1 3585:1 10444:1 220:1
27216:1 9453:1 26478:1 17138:1
13887:1 17990:1 220:1 2344:1 23513:1 4848:1 14719:1
11588:1 563:1 3441:1 10652:1
17104:1 18243:1 1723:1 10478:1 8646:1
13042:1 1297:1 21861:1 21613:1 20084:1
9252:1 1814:1 14350:1 16879:1
26963:1 2197:1 13046:1 20393:1 3806:1
26932:1 23519:1 26861:1 6301:1 12471:2 6025:1
21350:1 6496:1
11022:1 15427:1
28498:1 5499:1 3720:1 17275:1 19936:1 15836:1
12982:1 18911:1 137:1 21964:1 527:1 16681:1 27272:1 12596:1
24301:3 3014:1 19038:1
18140:1 21315:1 22245:1
26363:1 9019:1
12937:1 7728:1 13065:1 21525:1 9639:1 13240:1 601:1 4223:1
12831:1 13623:1 18024:1 26644:1 1666:1 13388:1
26231:1 28387:1 10277:1 9745:1 17512:1 7795:1 3139:1 6203:1
2741:1 2777:1 12399:1 2401:1
24499:1 7700:1 19432:1 16864:1 21896:1 13494:1 1297:1
4065:1 13089:1 25964:1 18147:1 12658:1 14502:1 21525:1 601:1
21772:1 9595:1 25010:1 21897:1 14739:1
6159:1 7207:1 9595:1 1297:1
17932:1 24050:1 14502:1 20976:1 11104:1
20683:1 25487:1 28270:1 220:1 16667:1
2359:1 17113:1 11875:1
2174:1 28021:1 28487:1 13654:1 15782:1 3442:1 220:1
21296:1 7453:1 25418:1 4163:1
20270:1 647:1
307:1 4893:1
10845:1 25010:1 8600:1 15613:1 1681:1 24499:1 26442:1
11953:1 2656:1 5224:1 220:1 7939:1
9719:1 7430:1
24301:3 1419:1 28188:1
11576:1 14365:1
15452:1 14582:1
28027:1 15885:1 18702:1 220:1 18220:1 1132:1 10212:1 21531:1
25021:1 19116:1 12471:1 18026:1 28297:1 25035:1 3058:1 19230:1 24362:1
22118:1 13833:1 7896:1 12651:1 20728:1 25890:1
26932:1 5225:1 11619:1 15309:1 24499:1 10444:1 1287:1
24453:1 5527:1 12471:2 18110:1 27186:1
14467:1 939:1
2197:1 15802:1 1040:1 11142:1 28417:1 14715:1
13736:1 26963:1 6677:1 12471:1 26329:1 22393:1 10022:1 12399:1
6818:1 9478:1 12158:1 12279:1
25105:1 10901:1 13212:1 11521:1 17615:1 26540:1 21568:1 3063:1 220:1
10901:1 24653:1
20874:1 15434:1
7748:1 11653:1 24087:1 25010:1 28676:1 21569:1 11239:1
21570:1 24311:1 3441:1 18135:1 24499:1 27194:1 220:1
1451:1 17234:1 7748:1
25756:1 25215:1 20728:1 14409:1 23837:1
26079:1 22299:1
2249:1 16740:1 13230:1 15761:1 13403:1 15645:1 27759:1 1297:1 25877:1 25547:1
24980:1 24301:3 5586:1 12593:1 19153:1 24499:1
3385:1 4270:1 13342:1 6910:1
17664:1 21338:1 9557:1 18188:1 28716:1 26903:1 12471:1 220:1 2648:1 10408:1 9783:1 12441:1
220:1 9539:1 16325:1 19951:2 22516:1 20728:1 4020:1 3572:1
24499:1 17425:1
15253:1 24545:1
9187:1 16200:1 15243:1 220:1 23606:1
7496:1 28437:1
25010:1 220:1 22245:1 11619:1
15452:1 14582:1
3027:1 23013:1 21613:1 13554:2 23078:1 1723:1 220:1 1763:1
2648:1 9594:1
16008:1 20603:1 1297:1 18168:1 17293:1 28181:1
21740:1 25519:1 21613:1 14525:1 27420:1 4266:1
16224:1 23418:1 28417:1 2409:1
19440:1 4939:1
17151:1 12193:1
519:1 2121:1 439:1 18133:1 26620:1 220:1
1673:1 12471:1 17432:1 15067:1 13843:1 9608:1
9034:1 28209:1 16681:1 14363:1 8039:1
3355:1 12471:1 8465:1
21613:1 2499:1 25311:1 6202:1 494:1
20185:1 3245:1 3411:1 6599:1
10586:1 21274:1 13843:1 12471:1 25199:1
22869:1 12471:1 12002:1 773:1 18502:1 4274:1 220:1 13843:1
25105:1 14343:1 12471:1 11142:1 6314:1 11961:1
1309:1 9756:1
4843:1 5449:1 4441:1 3186:1 19018:1 28782:1 18867:1
19264:1 28199:1 23967:1 17324:1 4163:1
1291:1 10842:1 21436:1 28359:1 17296:1
22848:1 18667:1
12726:1 10036:1 220:1
26363:1 19231:1
17808:1 1762:1
5188:1 10045:1 6888:1
2648:1 16374:1
4932:1 13908:1
19919:1 994:1 220:1 18457:1
17085:1 25801:1 16778:1 5738:1
27434:1 25253:1
16224:1 3046:1 2137:1 15737:1 24455:1
18732:1 4969:1 24984:1 19851:1
26363:2 20719:1
656:1 4800:1 15616:1 24499:1 4643:1 13300:1 21736:1
9772:1 24499:2 12471:1
21797:1 13693:1
21737:1 27855:1 23296:1 28238:1
6371:1 4596:1 18549:1 17834:1 220:1
20987:1 5298:1 3051:1 7739:1 5782:1
6309:1 3682:1 692:1 23279:1
1253:1 9772:1 9594:1 10551:1 22493:1 16198:1
15020:1 15616:1 16338:1 5553:1 16553:1
18849:1 27615:1
2579:1 22231:1
22462:1 9203:1 18140:1 24311:1
17919:1 26646:1 1297:1 10626:1 21613:1 24499:1
9236:1 28716:1
28268:1 26363:1
6377:1 26363:1
9595:2 2137:1 19663:1 4163:1
23824:1 17651:1 10321:1
25591:1 2106:1 13926:1 13381:1
19122:1 27341:1
28250:1 13636:1 11953:1
28395:1 6524:1 20574:1 21390:1 9356:1
25159:1 6347:1
16374:1 11704:1 17270:1
28027:1 26701:1 10533:1 20202:1 24459:1 18388:1 7032:1 220:1 11022:1
15802:1 28506:1 21788:1 2161:1
26:1 25756:1 19924:1 14019:1 18166:1 1346:1 2452:1 13926:1
26199:1 17275:1
2579:1 19169:1 24447:1 4643:1
20321:1 12471:1 13170:1 6793:1 1987:1 13843:1
220:1 2344:1 28417:1 4643:1 28716:1 14602:1
12471:1 25323:1 13993:1
8295:1 12471:1 3630:1 4238:1 20084:1
26363:1 14506:1
5572:1 25738:1
14983:1 14667:1 13186:1 4163:1 10444:1 6548:1 7939:1
28027:1 21338:1 2121:1 5562:1 10036:1 220:1 8449:1
22166:1 20992:1 17196:1 12471:1 26049:1 13843:1
18561:1 9745:1 13492:1 27016:1 20060:1 220:1
19911:1 12964:1
22150:1 27557:1 7694:1 27251:1
8151:1 12471:1 13926:1 21186:1 18452:1 12544:1
21402:1 27420:1
7154:1 6781:1
686:1 21629:1
28200:1 18195:1 14689:1 2121:1
28027:1 20728:1
24374:1 7649:1 24379:1 25915:1 5659:1
14294:1 2424:1 25591:1 220:1
18225:1 769:1 3864:1 14548:1 8069:1 24499:1
9821:1 567:1
27064:1 17275:1
4763:1 16096:1
23277:1 8511:1 939:1 17747:1
2015:1 25890:1 19817:1 18244:1
10444:1 16923:1 17317:1 4163:1 20874:1 16484:1 896:1 220:1 4259:1
16699:1 11384:1 11142:1
25319:1 26363:1 2121:1
8059:1 15452:1 2215:1
5256:1 7412:1 10478:1 28186:1 10797:1 25700:1 220:1
25673:1 24228:1
26015:1 17151:1
21772:1 16553:1 11619:1 6371:1
8681:1 2197:1 19884:1 11619:1 4266:1
14092:1 24499:1 22909:1 14064:1
21879:1 12:1 15836:1 7728:1 2508:1
12658:1 9513:1 6242:1 3441:1
12756:1 19374:1
14430:1 10444:1 9324:1
4800:1 6902:1 1297:1 3572:1 21613:1 22885:1 24499:1 220:1 20595:1
23037:1 15616:1 8804:1 21254:1 6923:1 12443:1 9507:1 19153:1 24499:1 1907:1 9595:1 220:1
12471:1 21740:1 8133:1 17425:2 19884:1 18195:1 220:1
10019:1 12471:1 3594:1
19913:1 25010:1 24380:1 17110:1 7423:1 23316:1 15997:1 220:1 4266:1
28395:1 26363:1 9356:1
21820:1 12711:1 12471:1 15417:1 6647:1 11114:1 220:1
12471:1 10277:1 18770:1 10742:1 23089:1 24914:1 16842:1 220:1 1287:1
6818:1 310:1 8161:1 21797:1 10546:1
20116:1 3589:1
16036:1 11155:1 10559:1 14256:1 220:1
24499:1 23129:1 15802:1 891:1 3720:1
25105:1 8866:1
26363:1 21565:1
2579:1 13813:1 17241:1 3720:1
24565:1 6505:1 21613:1 2579:1 1071:1 4643:1 22388:1
25600:1 22441:1 19815:1 5085:1
25012:1 19911:1 12471:1 1440:1 27398:1
4119:1 26220:1
24703:1 28676:1 25964:1
27670:1 7728:1 3864:1
8039:1 22425:1 7079:1 1587:1 9011:1
5179:1 1419:1 22931:1
5646:1 24499:1 7748:1 7348:1
6635:1 3569:1 1723:1
17463:1 25546:1 25094:1 24499:1 26638:1
23745:1 14502:1 13693:1 10845:1 3744:1
22848:1 18667:1 11619:1
25105:1 10901:1 20003:1 8133:1 25945:1 220:1
26975:1 25738:1
23824:1 21498:1 16532:1
14052:1 20250:1
12471:1 4907:1 13843:1 10444:1 16553:1 14917:1 15902:1
16080:1 2700:1 25267:1 22299:1
2215:1 19976:1 8215:1 27745:1 26963:1
12471:1 11619:1 17425:1 8302:1 19939:1 13926:1
12852:1 21265:1 25260:1 17215:1 16907:1 13908:1 10444:1 12993:1 4847:1 21881:1 15781:1
1840:1 2582:1 12791:1 24049:1
6377:1 26363:1
3361:1 2370:1 4847:1 19122:1 19018:1 220:1
14958:1 17389:1 24499:1 19305:1 19135:1 14550:1 18366:1 28126:1 55:1 26271:1 220:1
20770:1 20485:1 12471:1 25010:1 8388:1 11406:1 6282:1
20156:1 18702:1 28506:1 24499:1 16464:1 220:1 24180:1
25572:1 12852:1 27588:1 13191:1 28739:1 6497:1 24499:1 12471:1 10036:1 13843:1
19913:1 17603:1 25139:1 10323:1
8386:1 4558:1 5766:1 220:1 12277:1 10444:1 12023:1
11637:1 12479:1 1655:1 855:1
21755:1 19377:1 28009:1 12471:1 24838:1 4847:1 1082:1 22604:1 19018:1 220:1
11687:1 23520:1 6301:1 6771:1
19566:1 6923:1 9600:1 1245:1 23149:1 20051:1 875:1
1992:1 12471:1 21290:1 9883:1 18272:1 16346:1
17888:1 24301:3 24499:1
17975:1 21274:1 20728:1 20676:1 14016:1
9857:1 19227:1 16445:1 1616:1 9039:1 20162:1 21991:1 1419:1 220:1
2648:1 9594:1
16860:1 359:1 15507:1 12471:1 25411:1 18170:1 24499:1 2462:1 24401:1 27975:1 220:1
25380:1 11022:1 388:1
25010:1 26447:1 21012:1
13046:1 10783:1 3015:1 11146:1
14856:1 21100:1 12807:1
2624:1 16161:1
10444:1 8933:1 22433:2 12193:1
22848:1 18667:1
10901:2 24653:1 22531:1 9594:1 12445:1 220:1
21879:1 3099:1 20772:1 1297:1 27035:1 12302:1 24408:1
20728:1 4897:1 11619:1
25339:1 14816:1 20194:1 26958:1 19548:1 10444:1 9756:1 220:1
26932:1 21107:1 1297:1 4430:1
25236:1 27114:1 470:1
16033:1 22234:1 2912:1 24095:1 25180:1 1711:1
24311:1 27520:1
2853:1 16813:1 6700:1 22166:1 21613:1 2579:1 9391:1
16747:1 13922:1 17636:1 4266:1
686:1 3804:1
1423:1 18068:1
8219:1 1297:1
19122:1 27341:1
24502:1 16224:1 24455:1 15452:1 9187:1 21356:1 3385:1
9453:1 4238:1 23296:1 24499:1 4045:1 6253:1
4146:1 23296:1 10036:1 16879:1
3018:1 26963:1 8055:1 12471:1 21158:1 7759:1 12:1 28676:1 16553:1 13843:1
33:1 14016:1
25782:1 28669:1 21225:1 10444:1 7919:1 13658:1
9594:1 3441:1
26963:1 1297:1 21879:1 8739:1 17293:1 8664:1 687:1 17171:1
7966:1 3057:1
16563:1 25105:1 19643:1 17441:1 647:1
3569:1 24007:1
27142:1 26363:1 12471:1 11104:1 10742:1 220:1 16124:1
28809:1 19440:1 55:1 18840:1
12471:1 20645:1 3439:1 2324:1 687:1 13843:1
9513:1 3441:1
5457:1 3589:1 28634:1
3027:1 26777:1 8205:1 12709:1 1379:1 10951:1
1883:1 7798:1 22619:1 18332:1 5678:1
11704:1 17270:1
20819:1 6170:1 23992:1
15243:1 28042:1
23708:1 23608:1 6635:1 24499:1 10444:1 1297:1 25301:1
7966:1 3057:1
148:1 18961:1
21879:1 22748:1 27460:1 9866:1 11953:1 12471:1 19736:1
4624:1 17651:1 12471:1 13843:1
6647:1 12637:1 2579:1 5198:1 24180:1
21933:1 23575:1
9498:1 1655:1 26381:1 28782:1
21121:1 9595:1 24301:3
24301:3 24703:1 5930:1 7059:1
19360:1 7728:1 17171:1
26464:1 22931:1 21151:1 19959:1 24499:2 2015:1
27142:1 26363:1 12471:1 11104:1 7241:2 220:1 15836:1
12471:1 20254:1 11619:1 12117:1 9406:1 24254:1
10734:1 22234:1 19105:1 5186:1 5072:1 17241:1 220:1
4810:1 15069:1
25312:1 19305:1 21002:1 4101:1 21613:1 10444:1 9973:1
28112:1 9024:1
6496:1 24499:1 18950:1 381:1
5903:1 1121:1 8058:1 18186:1 13908:1 10444:1 18691:1 9492:1 26247:1 6292:1
19976:1 22019:1 5970:1
2579:1 12966:1 4458:1 24499:1 12471:1 13997:1 13843:1
12182:1 7149:1 12471:1 24301:3 18195:1 18876:2 25613:1
22721:1 18968:1 2008:1 18876:1 11345:1 19959:1 10444:1 220:1 1287:1
3894:1 20457:1 13046:1 21720:1 20990:1 10444:2 220:1
10901:2 24653:1 22531:1 9594:1 12445:1 220:1
12471:1 13843:1
3190:1 1297:1 4649:1 12658:1 20728:2 18793:1 13186:1 11889:1
23089:1 11291:1 16754:1 220:1 1287:1
10329:1 14307:1 4266:1 3569:1 24499:1 10444:1 23057:1 27272:1
13693:1 11619:2 25719:1 23870:1 25619:1 27272:1
21304:1 19959:1 12471:1 6294:1 15616:1 10444:1 18775:1 220:1 2074:1
12551:1 16374:1 28122:1 24499:1 14604:1
16620:1 11896:1 16553:1 7759:1
20874:1 1442:1 10444:1 5954:1 3027:1 25236:1 14689:1 4163:1 15104:1 21121:1 12521:1 220:1
15282:1 2121:1
19296:1 6618:1 24496:1 14028:1
21274:1 8692:1 12471:1 17275:1 27501:1 13196:1 13843:1
14150:1 21505:1 12471:1 22088:1 7982:1 20935:1 17426:1 8465:1
21274:1 23846:1 5730:1 2579:1 220:1 22206:1
24838:1 2586:1 2345:1 19018:1 24499:1 4897:1 10373:1 14220:1
2215:1 12726:1 7396:1 7330:1
6113:1 6292:1 20728:1 21012:1 7748:1 3190:1
5553:1 22158:1 11675:1 21213:1
12462:1 10444:1 6292:1 2681:1
19294:1 24301:1 21311:1 19359:1 20733:1 22909:1 10652:1 11953:1
20022:1 11199:1 21350:1 4643:1
5449:1 21613:1 23411:1 17876:1 19107:1 17565:1
7544:1 15741:1 14507:1 11619:1 14068:1 10444:1 220:1
12148:1 21857:1 1522:1 16481:1 26029:1
5311:1 13693:1
996:1 26963:1 1287:1 4641:1 4644:1
19264:1 14162:1
20819:1 10271:1 26478:1
4128:1 15997:1 8323:1 12471:1 9909:1
8078:1 16073:1 1297:1 15728:1 23673:1 8182:1 24582:1 18155:1 27003:1 27059:1 19924:1 24499:1 220:1
10797:1 19548:1 15997:1
1910:1 25168:1 3815:1 21075:1 23187:1 4163:1 9465:1 23967:1 1907:1 22909:1 220:1
21027:1 15836:1 25267:1 1253:1
24301:2 13502:1 16484:1 4163:1 21609:1 22638:2 10444:1 13186:1 6235:1
7966:1 3057:1
17466:1 11619:1 14646:1 26382:1 9236:1 11085:1 13926:1
24499:2 26823:1 11022:1
9236:1 28716:1
5390:1 5551:1 1253:1
24301:3 20812:1 13908:1 10444:1 6309:1 23860:1 220:1
3191:1 1297:1 686:1 27352:1 6496:1 220:1
19294:1 21610:2 12471:1 22909:1 24301:3
26363:1 23207:1 10652:1
20690:1 18110:1 1678:1 17512:1 25945:1 23194:1 18366:1 27272:1
6885:1 24459:1 11619:1 20162:1 6302:1 220:1
9236:1 26363:1
15013:1 19725:1 17317:1 7100:1 24499:1 24464:1 7728:1
16374:1 9513:1 18018:1 21740:1 220:1
17086:1 4815:1
10470:1 12471:1 13074:1 21274:1 2700:1 6396:1 20454:2
28027:1 7756:1 23379:1 15885:1 1414:1 220:1
26963:1 27382:1 1297:1 9265:1 11619:1 19959:1 8356:1 14502:1
16374:1 11870:1 12471:1 6960:2 20634:1 23896:1 22019:1 15106:1
5188:1 25600:1 17812:1
15802:1 2329:1 2296:1
12518:1 1283:1 326:1
1121:1 17882:1 2675:1 9461:1 10444:1 5198:1 27239:1 220:1
18806:1 27906:1 7231:1 12471:1 12937:1 3589:1 21186:1 15648:1
24301:3 1642:1 1616:1 21613:1 2579:1 4643:1
18186:1 11619:1 22885:1 23277:1 8511:1 24499:1
16224:1 12471:1 26518:1 9655:1 13843:1 9123:1 25369:1 22206:1
2579:2 24499:1 4238:1
20836:1 17666:1 13821:1 3441:1 23243:1
13843:1 21274:1 12471:1 13196:1 4249:1
12471:1 8653:1
19323:1 7939:1 14436:1 24944:1 24499:1 963:1 27867:1 7348:1
24294:1 21885:1 17691:1 6347:1 4266:1
4065:1 5998:1 18713:1 10636:1 9781:1 17876:1 8737:1
2287:1 20577:1 6247:1 13210:1 9705:1 10444:1 24499:1 10738:1 6292:1 220:1 4163:1
19316:1 919:1 1297:1 19232:1 20560:1
25459:1 3330:1 3372:1 18767:1
26963:1 11596:1 439:1 4643:1 19817:1 16190:1
23013:1 21436:1 9324:1
14380:1 7090:1 20185:1 16553:1 11218:1 220:1 12871:1
10154:1 8449:1 1525:1 9069:1 13196:1 17113:1
11619:1 14220:1 21224:1 220:1 10094:1
24301:1 791:1 6396:1 24070:1 8698:1 4163:1 25891:1 1938:1
15012:1 2579:1
19305:1 1920:1
11719:1 23013:1 7972:1 10036:1 22013:1
24499:1 12471:1 19951:1 7060:1
21100:1 12471:1 1040:1 22595:1 10885:1 6111:1 1287:1
22721:1 2700:1 10444:1 220:1 237:1
14221:1 23277:1 10444:1 17664:1 2676:1
10444:1 2362:1 7570:1 23302:1
9778:1 20281:1 13691:1 11619:1 220:1
23152:1 12428:1 14611:1
16339:1 12237:1 9750:1 28623:1 23037:1 10444:1 276:1 220:1 1673:1
19911:1 12964:1
18759:1 25964:1 3361:1 10070:1 17241:1 23418:1 220:1 14990:1
16813:1 14016:1
11181:1 917:1
686:1 25369:1 16553:1
19651:1 10444:1 2121:1 9083:1
12471:1 27425:1 4195:1 11619:1 4163:1 27965:1 9595:1 8959:1 13926:1
10682:1 21493:1 2197:1 5524:1 2305:1
12658:1 9513:1 6242:1 3441:1
20819:1 19896:1 1297:1 3720:1
27729:1 25010:1 4266:1 5219:1 27502:1
26064:1 1396:1 13046:1 3939:2 9215:1 24247:1 220:1 9166:1
12895:1 24499:1 19824:1 27272:1
23673:1 9639:1
2772:1 27729:1 9406:1 2121:1 24259:1
8528:1 10788:1 5928:1
17466:1 2648:1 220:1
26611:1 23773:1 21613:1 7649:1 24791:1 744:1
26672:1 1976:2 12471:2 1121:1 24301:1 6121:1 24499:2 220:1
19911:1 12964:1
3226:1 10906:1
19264:1 15434:1 27420:1
24643:1 6741:1 16879:1 7502:1 8169:1 4856:1
686:1 20574:1 28716:1 2127:1 26811:1 220:1 8770:1
3434:1 2475:1 12471:1 8317:1 9772:1 20648:1 13848:1 16879:1
26424:1 24381:1 21525:1 2579:1 19911:1 27398:1 11429:1
10901:1 2197:1 26379:1 10625:1 16554:1 24128:1 4444:1 13486:1
6292:1 3175:1 10694:1
8030:1 24499:1 12937:1 1155:1 16553:1
751:1 23778:1 14646:1 18323:1 3186:1 24499:1 10478:1
439:1 13172:1 26363:1 11956:1
24381:1 1155:1 12471:1 19906:1 7264:1 3577:1 5641:1 2579:1 12635:1 8465:1
27368:1 21274:1 12471:1 17275:1 27501:1 13196:1 13843:1
8773:1 1207:1 27927:1 8955:1
13612:1 139:1 11815:1 19838:1
11104:1 12471:1 1313:1
23301:1 17194:1
14728:1 919:1 1297:1 19232:1 6606:1
10055:1 1642:1 17615:1 17441:1 4911:1 28375:1 25801:1 13577:1
23043:1 12471:1 28487:1 24595:1 23967:1 4163:1 10444:1 25336:1 7335:1 11947:1
26015:1 4072:1
27712:1 1297:1 2462:1 27015:1 7748:1
26363:1 11719:1
7519:1 21965:1 8878:1 12370:1 12973:1 14813:1 24499:1
2945:1 8797:1 28395:1
28676:1 17113:1 10241:1
11760:1 23705:1 4800:1
19809:1 12965:1 12471:2 15604:1 2810:1 11801:1 13910:1
2174:1 27360:1 4507:1 13857:1
8877:1 2054:1 6776:1 17834:1 24455:1 2810:1 24258:1 13691:1 17710:1 25267:1 13186:1
9202:1 220:1 2652:1 15836:1
18073:1 3589:1 26257:1 9772:1 15473:1 9043:1 24499:1 12471:1 220:1
12471:1 5712:1 23837:1 22802:1 2232:1 13848:1 25890:1
15339:1 27730:1 7728:1 25219:1 18726:1 21613:1 20593:1 24499:1 13926:1 9880:1 1040:1
11557:1 15222:1 10096:1 2232:1 5880:1 21983:1 25623:1
28027:1 771:1 7728:1 11619:1 26189:1 7956:1 14033:1 220:1
16339:1 21772:1 19151:1 12932:1 2074:1
10444:1 20019:1
18277:1 1858:1 898:1 8859:1 7951:1 7450:1
7648:1 20238:1 23890:1 19924:1 4693:1 3794:1 23896:1 13887:1 7348:1
16374:1 28122:1
10625:1 21613:1 19959:1 17269:1 15321:1 4643:1 22161:1 12471:1 10444:1 1048:1 24944:1 28188:1 10145:1 220:2
18846:1 2224:1 14467:1 25639:1 6496:1 220:1 17533:1
15025:1 5046:1 24984:1 23404:1
23777:1 15802:1 5300:1 8133:1 9973:1 2370:1
8564:1 13256:1 13482:1 6618:1 4641:1 25334:1 1287:1
23336:1 2805:1 6625:1
220:1 9528:1 11065:1
23277:1 5449:1 16727:1 3589:1 220:1
10005:1 4848:1 10613:1 5499:1 24499:1 20252:1 2344:1 220:1
26122:1 3352:1 15802:1 7502:1 21350:1 8568:1 687:1
5721:1 18688:1 21350:1 7748:1
15282:1 2810:1 2121:1 1763:1
24944:1 26508:1 15300:1
14112:1 14810:1
27136:1 8133:1 7700:1 3569:1 25010:1 2561:1
8047:1 18402:1 4477:1
27472:1 24301:3 21798:1 10432:1
8131:1 12323:1
8127:1 1939:1 24982:1 20419:1
14112:1 9756:1 7234:1
16072:1 2121:1 12203:1
7194:1 21274:1 12471:1 13196:1 13843:1
20874:1 2579:1 7939:1
5250:1 7896:1 9717:1 26518:1 10652:1 27420:1
2121:1 15280:1 8193:1 6596:1 12279:1 21613:1 10444:1 220:1 1763:1
6301:1 4066:1 553:1
12653:1 11118:1 28359:1 25951:1
3385:1 4798:1 15452:1 8302:1 18949:1 20835:1 27420:1
3361:1 14112:1
22166:1 25236:1 26765:1 3589:1 28416:1 28634:1 5457:1 21274:1 220:1 21342:1
519:1 24579:1 2223:1 14783:1 12471:1 24499:1 11073:1 20207:1 220:1
19674:1 2652:1 220:1
16224:1 27869:1 13759:1 27759:1 17932:1 14502:1
26786:1 2299:1 9406:1 17947:1 12944:1 3240:1
15972:1 15866:1
12518:1 2811:1 1283:1
3385:1 17197:1 12390:1 11619:1 18569:1 6161:1 24499:1 25059:1 220:1 23191:1
23897:1 27398:1
25222:1 14281:1 9449:1 20874:1 23069:1 220:1
21723:1 14610:1
14502:1 6193:1
26199:1 17275:1
996:1 3260:1 15260:1 10974:1 20725:1
14343:1 3744:1 11895:1
17846:1 15612:1 8388:1 13857:1 9548:1 10652:1
20904:1 13300:1 16241:1 12556:1
776:1 12731:1
23746:1 7567:1 20645:1 28191:1 898:1
26363:1 7127:1
21879:1 4861:1 26379:1 8766:1 28375:1 7972:1 28417:1
24499:1 24277:1 3720:1
127:1 8356:1 26406:1 2649:1 4163:1
17124:1 23896:1 15732:1
17710:1 28270:1 23773:1 2424:1 20683:1 16247:1
21311:1 15253:1 12471:1 14715:1 1992:1 12854:1 21265:1 26141:1 12489:1 13843:1
27837:1 13926:1 2121:1 24517:1
3191:1 17710:1 19884:1 1080:1 25010:1 7409:1 4266:1
11719:1 12471:1 20271:1 11104:1 16200:1 13843:1 16553:1 27398:1 13769:1
9928:1 3363:1
1423:1 18068:1
24551:1 16198:1
17411:1 23967:1 7853:1 4163:1
4441:1 5148:1 28417:1 21356:1 16879:1
219:1 2642:1 6466:1
21885:1 15140:1 8272:1 1913:1 11171:1 27563:1 27719:1 13388:1
1423:1 18068:1
19911:1 12964:1
23673:1 1161:1 1297:1
3027:1 4081:1 18186:1
24499:1 15802:1 13183:1 6248:1 17144:1
11104:1 12471:1 13843:1
12471:1 17270:1 27553:1 18502:1 601:1 23296:1
18876:1 20992:1 26148:1 17615:1 21539:1
13491:1 14986:1
2791:1 2621:1
25871:1 10901:1 13491:1 12973:1
27142:1 24529:1 10673:1 4316:1 1225:1 6067:1 27327:1 8633:1 220:1
2969:1 23551:1
8426:1 9406:1
18806:1 24301:1 24443:1 11619:1 18135:1 21121:1 24499:1
686:1 25010:1 3804:1 26447:1 220:1 4643:1
1992:1 12857:1 12471:1 24687:1
38:1 24980:1 24499:2 686:1 14550:1 18599:1 267:1 21203:1
15182:1 220:1 26381:1
2579:1 18806:1 23745:1 24499:1 5334:1
24137:1 7648:1 18935:1 10613:1
18674:1 24339:1 15997:1 7438:1 5766:1
15280:1 19689:1 17834:1 11619:2 6371:1 623:1 4932:1
9928:1 24899:1 12471:1 23805:1 26829:1
24895:1 28536:1
845:1 1461:1 12471:1
7109:1 4861:1 22234:1 10884:1 20863:1
1992:1 12471:1 770:1 878:1 17426:1 22019:1 9756:1
307:1 8151:1 12471:1 26580:1 8639:1 9608:1
15270:1 12471:1 7412:1 13822:1 771:1 26528:1 23673:1 24621:1 8959:1 14743:1 4163:1
15341:1 4751:1 8133:1 16224:1 28249:1 27251:1
20022:1 12471:1 11114:1 2579:1 4643:1 4587:1
18110:1 13037:1 2579:1 9756:1 11114:1
7730:1 13624:1 16952:1 25334:1 9188:1
24509:1 17425:1
4512:1 1824:1 8448:1 27207:1
8848:1 16581:1 24499:1 18220:1 10341:1
24301:1 12471:1 19225:1 27396:2 26308:1 10444:1 16015:1 12961:1
2197:1 22692:1
14343:1 1642:1
5499:1 6952:1 24060:1 20874:1
10444:1 7728:1
26447:1 9655:1 25010:1 25890:1 22245:1 28188:1
8078:1 18876:1 20728:1 12276:1
24161:1 18477:1
14502:1 1297:1 7036:1 220:1 25145:1
1538:1 26447:1
27142:1 24529:1 2652:1 220:1 20111:1
15020:1 21436:1 22855:1
18659:1 18244:1 7748:1
8943:1 24499:1 22557:1 9367:1 25600:1
25928:1 11619:1 4595:1 9187:1 1803:1 25010:1 7538:1 220:1
7574:1 24722:1
26363:1 5187:1
13887:1 1721:1 17579:1
24524:1 18505:1
21484:1 24499:1 4195:1 13887:1 2197:1
16682:1 6367:1 20234:1
14138:1 6830:1 18224:1 7412:1 15113:1 19959:1 2074:1 7348:1
24643:1 6306:1 21707:1 19564:1 23939:1
23906:1 12471:1 17785:1 27759:1 18688:1 10036:1 16553:1 13843:1
25105:1 13243:1 10444:1 7939:1 10091:1
8324:1 12726:1 24329:1
686:1 24344:1 17197:1 6975:1 24301:3
1038:1 25010:1 15836:1
12471:1 13046:2
21185:1 1297:1 18157:1 24499:2 3744:1 16952:1
4540:1 18110:1 24499:1 12390:1 16400:1 1080:1 10145:1 7177:1 4643:1 220:1 26695:1
1283:1 11022:1
11687:1 3226:1 2197:1 2642:1 9548:1 3569:1
12471:1 10444:1 12390:1 13970:1 24839:1 4163:1 18924:1 2860:1
14343:1 8906:1 14033:1 10444:1 20814:1
21484:1 7472:1 23078:1 23602:1 10761:1
16889:1 19501:1 19412:1
24499:1 1904:1 4163:1 14925:1 10444:1 8959:1 17825:1 25334:1
9850:1 5930:1 19105:1 22726:1 18646:1 28186:1 10478:1
16553:1 13887:1 4709:1
1297:1 9325:1 28191:1 10845:1
3027:1 25324:1 17396:1 27837:1 13654:1 15282:1 895:1
18140:1 18130:1 195:1 17537:1 7468:1 17777:1
12637:1 11770:1 2579:1 25236:1 28506:1 9756:1
776:1 12731:1
10901:1 24653:1
3245:1 25227:1 18166:1
16374:1 19412:1 19743:1 4599:1
27472:1 16472:1
25917:1 20194:1 25240:1 3569:1 17876:1 28399:1 220:1 13570:1
24895:1 220:1 21237:1
24301:3 17317:1 381:1 8465:1
20022:1 17341:1 3246:1 6301:1 16553:1 15465:1
20162:1 6468:1 25010:1 25381:1
1297:1 19884:1
16200:1 18858:1 25774:1 466:1 24499:1 9277:1 23110:1 13570:1
21464:1 17730:1
28359:1 2344:1 4848:1 10159:1 4643:1 220:1 19948:1
8374:1 14604:1 21788:1
2648:1 220:1 25435:1
23295:1 10444:1 1671:1 19047:1
15669:1 14793:1 5211:1 9289:1 14692:1
2769:1 5938:1 13046:1 14506:1
9490:1 2853:1 10783:1 28716:1 5198:1 14502:1 10652:1 24180:1
7412:1 27028:1 1864:1 10444:1 220:1 6292:1
23673:1 27468:1 1297:1 6606:1 2137:1
12827:1 24422:1 5644:1
26400:1 24063:1 2316:1 15836:1
7935:1 15177:1 3569:1 16710:1 21881:1 20728:1 24791:1 6309:1 27184:1
28434:1 771:1 20038:1 15777:1
28027:1 1297:1 10797:1 25080:1 14728:1 1335:1 5452:1 2268:1
12661:1 21212:1 24499:1 10583:1 28594:1 9425:1
26363:1 9019:1
762:1 18858:1 2011:1 3447:1 16837:1
2197:1 4195:1
21935:1 1698:1 18781:1 24435:1
26:1 24529:1 1297:1 4492:1 21613:1 14502:1
13843:1 21274:1 12471:1 13196:1 7642:1
6685:1 16034:1 27491:1 25604:1 1698:1
26363:1 14506:1
6371:1 771:1 17317:1 16060:1 24768:1 4618:1 4932:1 7067:1
439:1 17113:1
26655:1 22245:1
25236:1 9052:1
28027:1 9034:1 19151:1 25010:1 23267:1 16013:1 19126:1
21613:1 25715:1 13092:1 7748:1 12658:1
12471:1 28680:1 2564:1 2579:1 2552:1 13843:1
26319:1 17903:1
4932:1 11022:1 6230:1 19884:1
3894:1 17834:1 25890:1
8716:1 21436:1 2642:1
912:1 6347:1 7764:1 14061:1
14684:1 12134:1
3864:1 16648:1
3027:1 19890:1 8151:1 26220:1 4643:1
1642:1 24499:1 19090:1 2316:1
16224:1 26933:1 27985:1 13165:1 17138:1 4185:1
22902:1 4415:1 27793:1 11619:1 11891:1
13613:1 10997:1 25300:1 18973:1 8489:1 13655:1
15013:1 1297:1 13149:1 5431:1 23673:1 4150:1 20707:1 13822:1 7348:1
1723:1 12399:1 381:1 21613:1 24499:1 6309:1
2785:1 23574:1 6625:1 4843:1 24499:1 28161:1 13092:1 7502:1
11882:1 19924:1 28634:1 14305:1 24582:1 2268:1
25600:1 24499:1 19345:1 12759:1
14106:1 24329:1 19751:1
14343:1 22433:1 26793:1
26363:1 5187:1
18847:1 3976:1 1297:1 14689:1 24499:1 6301:1 220:1
12189:1 10614:1 8833:1 13948:1 16127:1 8691:1 6397:1
5256:1 16445:1 980:1 27200:1 9756:1 220:1
25236:1 1714:1 23821:1 220:1
686:1 10444:1 26251:1 21901:1 26988:1
12042:1 9596:1 15991:1 8273:1 11619:1
15185:1 4611:1 14542:1 13058:1 22050:1 10145:1 4643:1 220:1 28188:1
6301:1 11619:1 17425:1
12469:1 7939:1 9540:1 12002:1
19850:1 21121:1 21274:1 17666:1
15417:1 3484:1 11022:1 3441:1 14337:1 1297:1 1451:1
13012:1 14141:1
8758:1 9900:1 2339:1
12082:1 28524:1 18889:1 20162:1 5398:1 4546:1 220:1 7348:1
9513:1 17197:1 3441:1 220:1
14457:1 23606:1 15243:1 11619:1 21407:1
17415:1 16445:1 220:1 20162:1 16346:1 7748:1
28395:1 26363:1 9356:1
25319:1 28763:1
9883:1 5738:1 1992:1 15253:1
11619:1 5256:1 12471:2 9265:1 20691:1 21983:1 22906:1
26667:1 26363:1
15434:1 12471:1 6638:1 10286:1 7241:1 17324:1 20400:1 220:1
6322:1 20683:1 2454:1 28270:1 220:1
1938:1 4163:1 21121:1 24447:1 13926:1 17549:1 12655:1
27320:1 6706:1 4932:1 21436:1 12902:1 25010:1 24791:1
12471:1 7728:1 25717:1 24059:1 8640:1 21239:1 6347:1
10444:1 10906:1 6309:1 27157:1 27521:1
18876:1 19906:1 7348:1
10147:1 26584:1
686:1 7534:1 23669:1 3804:1 7203:1 220:1
2197:1 23940:1 23852:1 21156:1 677:1 17073:1 2268:1
9574:1 10895:1 5322:1 2810:1
6618:1 20825:1 3226:1 27398:1 11405:1
2648:1 16374:1
6377:1 26363:1
22166:1 13463:1 1461:1 14502:1 22464:1 13926:1 9083:1 220:1
19754:1 10389:1
2769:1 3363:1 230:1
28199:1 14684:1 8863:1 16155:1 4149:1 220:1 12201:1
14930:1 15742:1 12386:1 20698:1 16735:1 1840:1 21613:1 27194:1
10812:1 220:1 2482:1
24038:1 8878:1
686:1 4332:1 3393:1 28716:1 4163:1 10444:1 6496:1 220:1 22418:1
21610:1 27729:1 19564:1 8960:1
3572:1 14118:1 19107:1 12635:1 220:1 14276:1
18178:1 19112:1
788:1 16200:1
1706:1 8639:1 8284:1 16289:1 4266:1
11790:1 12667:1 28096:1 4163:1 16707:1 10444:1 220:1 6292:1
7608:1 11619:1 1907:1 3798:1 13926:1 9406:1 15050:1
10614:1 25080:1 24499:1 1297:1 2268:1
17651:1 10590:1 220:1 3671:1
3226:1 5552:1 28127:1 7502:1 13650:1 9155:1
8447:1 24344:1 994:1 3441:1
11918:1 17420:1
8842:1 12471:2 2681:1 321:1 21379:1 16094:1 5457:1 4020:1
25871:1 12316:1 23403:1 26887:1 24499:1 22855:1 21972:1
22829:1 220:1 7800:1
11980:1 2810:1 15226:1 22761:1 9288:1 17073:1
4932:1 13908:1
1469:1 27910:1
22829:1 18186:1 7994:1 26667:1 8743:1 13196:1
24499:1 17425:1
439:1 15554:1
23608:1 10694:1 14064:1 8797:1 10444:1 9166:1
686:1 24335:1 13191:1 25010:1 19539:1 26447:1 220:1 1771:1
24301:1 11596:1 177:1 4163:1 10444:1 14409:1
17105:1 13312:1 220:1
18806:1 1655:1 11619:1 9150:1 7667:1 4932:1
6420:1 13133:1 28144:1 13693:1 12702:1
2937:1 13342:1 4266:1
12471:1 13843:1
23874:1 25312:1
27013:1 26644:1 7412:1 10036:1 25543:1 11953:1
23906:1 12471:1 22801:1 13843:1 19348:1 5452:1 20207:1 3744:1
20728:1 12022:1 26273:1 475:1 22757:1
23738:1 18613:1 15869:1
8755:1 26884:1 6396:1 14986:1 23118:1
20486:1 13463:1 4897:1
24499:1 3926:1 4441:1 28417:1 18124:1 4275:1
24499:1 1384:1 16923:1 28718:1
7022:1 17144:1 4949:1 22918:1 9639:1 220:1
15280:1 10444:1 26202:1 17151:1 13191:1
12471:1 17609:1 4238:1 26051:1 27251:1 28680:1 11953:1
14343:1 26932:1
55:1 4643:1 28188:1
8059:1 23681:1 21881:1 220:1 9923:1
18806:1 12852:1 4800:1 18477:1 14711:1 16553:1 4527:1
21879:1 22869:1 15802:1 10901:1 21388:1 15836:1
14106:1 24834:1
3575:1 16360:1 8398:1 19924:1 8078:1 24499:1 24582:1 220:1
18876:1 22370:1 293:1
25236:1 13926:1 14381:1 14325:1
13926:1 27681:1 1419:1 13681:1 11969:1
8386:1 10729:1 25928:1 19999:1 24301:3 25010:1 25334:1
24499:1 12471:1 9639:1 9356:1 21464:1 7472:1
12256:1 7728:1
28103:1 2197:1
24301:3 15432:1 9517:1 20584:1 27086:1 7059:1
28281:1 10223:1 6130:1 24499:1
17641:1 8257:1 8639:1 2856:1
14780:1 4206:1 23101:1 3057:1 14202:1 499:1 28791:1 12471:1 21223:1 21156:1 24499:1 220:1
24301:3 10444:1 6113:1 3589:1 21019:1 822:1 7790:1 28621:1 22604:1 220:1 1655:1
25105:1 10544:1 12471:1 19911:1 13065:1
7742:1 13533:1 6888:1 24963:1 24499:1 21438:1 22919:1 14016:1
26932:1 12471:1 18688:1 13843:1 3204:1 16553:1 25199:1
22161:1 12471:1 28377:1 3859:1 9087:1 2207:1 7348:1
2475:1 10444:1 19567:1 17275:1 692:1 20874:1 26079:1 14149:1
21278:1 12459:1 18686:1
11104:1 12471:1 15802:1 24180:2
21525:1 2853:1 22591:1 15892:1 12937:1
12658:1 4195:1
23008:1 4643:1 28529:1 26379:1 5499:1 24499:1 10444:2 17034:1 23122:1 11358:1
5557:1 4088:1 10036:1 4834:1
20162:1 24324:1 16445:1 20207:1 220:1
24231:1 21437:1 16513:1
24986:1 22526:1 687:1
23768:1 2579:1 16887:1 15243:1 11022:1
12209:1 24499:1 25844:1
16923:1 19757:1
6234:1 12471:1 16689:1 13843:1
16221:1 11288:1 24499:1 23705:1 8857:1 9533:1
5198:1 8857:1
25105:1 21159:1 10444:1 24301:1 8402:1 5327:1 24499:1 8333:1 12843:1
14409:1 12471:1 20645:1 17675:1 13843:1
20075:1 11095:1 2197:1 2050:1 24247:1 17275:1 9166:1 21274:1 22052:1 28592:1 24499:1 220:1
9452:1 12471:1 1819:1 10613:1 3866:1 28188:1 6309:1 23860:1 11799:1
10444:1 14854:1
8692:1 12471:1 8136:1 7759:1 14855:1 601:1 13843:1
12471:3 20515:1 21186:1 14033:1 28188:1 25359:1 220:1 23841:1
19264:1 19007:1 686:1 28281:1 1419:1 4444:1 220:1
21613:1 13655:1 11906:1 3804:1 13228:1
20819:1 19717:1 16676:1 3186:1 17765:1 21186:1 683:1 12471:2 4163:1 3569:1 25010:1 9288:1
3569:1 2579:1 11902:1
11939:1 20257:1 2172:1 5059:1 25010:1 10444:1
15974:1 4393:1 25236:1 6647:1 24046:1 16338:1 16553:1
14550:1 28304:1 17579:1 5151:1 23726:1
13926:1 5349:1 12471:1 12937:1 13843:1
4150:1 6292:1 3569:1 15303:1 24499:1 18775:1 3720:1
12471:1 13046:2
9730:1 28417:1 16938:1 20687:1
24790:1 26379:1 16863:1 21613:1 24499:1 7409:1 1566:1 17579:1
21525:1 11619:1 27376:1 17666:1
28664:1 7343:1 12471:2 2810:1
27445:1 5917:1
2579:1 9155:1
9069:1 4238:1
9774:1 18858:1 7439:1
24367:1 16224:1 21908:1 2642:1
7639:1 24499:1 16555:1
6361:1 27491:1
6093:1 13322:1 7100:1 18306:1 27975:1 12783:1 13570:1
28395:1 12471:1 24459:1 23837:1 24301:1 19572:1 24499:1 10444:2 6091:1
16155:1 11022:1 28188:1
10444:1 16553:2 220:1 11969:1
12658:1 9513:1 6242:1 3441:1
28108:1 542:1
10797:1 20453:1
8336:1 16872:1 13037:1 12395:1 23837:1
15253:1 19266:1 2984:1 23896:1 12854:1 6309:1 26860:1
24296:1 19105:1 17666:1
21365:1 16226:1 12471:3 13533:1 18433:1 15732:1 26351:1 1826:1 9986:1 684:1
25945:1 11094:1 22605:1 24768:1 27975:1 12791:1 13570:1
25665:1 4238:1 12471:1 16938:1 13843:1 4932:1 28525:1 17666:1
722:1 20728:1 20757:1
21784:1 12806:1 25267:1 2810:1
23939:1 24529:1
22722:1 1283:1 27813:1 26999:1 7649:1 10444:1 9769:1
5449:1 4275:1 21356:1 17475:1
16430:1 3712:1 14064:1 414:1 10444:1 12906:1 18186:1 28716:1 15836:1
16224:1 11719:1 26834:1 6367:1 7759:1 9418:1 24499:1
3385:1 6923:1 15529:1
10444:1 15488:1 16553:1
26363:1 14506:1
18876:1 19198:1 1938:1 19758:1
6960:1 16374:1 13055:1 17371:1 4399:1
15452:1 14582:1
25010:1 13744:1
19959:1 3343:1 21233:1 5406:1 23705:1 25371:1 12471:1 8866:1 220:1
3027:1 8193:1 9855:1 20728:1 25010:1 19656:1
21274:1 19648:1 12471:1 13196:1 13843:1
3590:1 2552:1
13113:1 9292:1
27142:1 16224:1 26363:1 12471:1 21613:1 11104:1 24499:1 220:1
20232:1 20125:1 25664:1
12831:1 9461:1 12302:1 7728:1 11847:1
19412:1 23242:1 14294:1 10444:1 7168:1 17259:1
25010:1 1297:1
16374:1 11704:1 17270:1
18261:1 28506:1 18740:1 2328:1 5981:1 20727:1 220:1
24838:1 2579:1 27973:1 15836:1
26363:2 20719:1
686:1 10271:1 11725:1 21569:1 220:1
1442:1 8193:1 6438:1 20207:1
18342:1 24963:1 16929:1
18548:1 19007:1 11019:1 14507:1 490:1 13092:1 220:1
28643:1 20593:1 27809:1
6761:1 4676:1 12702:1 19959:1 16554:1 220:1
24499:1 16554:1 8866:1
1786:1 4399:1
28047:1 2197:1 21491:1 12101:1
11579:1 1309:1 15314:1 3744:1 220:1
4270:1 1723:1 6309:1 24500:1
26667:1 26363:1
10055:1 11619:1 8081:1 24895:1 220:1 28188:1
26015:1 4072:1
7412:1 18084:1 12471:1 24301:3 19736:1
16155:1 5641:1 12635:1 13681:1
26843:1 15253:1 14684:1 15776:1 1992:1 15020:1 2015:1
24529:1 1616:1 18186:1 15427:1
17241:1 1655:1 22351:1 33:1
7966:1 3057:1
12462:1 24136:1 28359:1 4163:1 5327:1 23037:1 24499:1 23967:1 220:1
9069:1 20404:1 5247:1 17317:1 9763:1 220:1 14854:1
10277:1 15561:1 1659:1 8603:1 23375:1 3241:1 6332:1
20819:1 12726:1 1927:1 17626:1 19001:1
4861:1 28395:1 26649:1 9939:1 696:1
26015:1 4072:1
28281:1 24986:1 12471:2 23062:1 220:1 13843:1 6793:1 16206:1 27365:1 18742:1
26841:1 3569:1 6496:1 11218:1
14193:1 8639:1
16064:1 24499:1 21779:1 23821:1 22405:1 7748:1
5457:1 20010:1
19234:2 12471:1 15997:1
17310:1 16681:1 13167:1 26328:1 27520:1
16224:1 11719:1 12471:1 7694:1 14986:1 28676:1 10828:1 13843:1
22150:1 12471:1 6000:1 19564:1 5390:1 7642:1 13843:1
28325:1 12471:1 16484:1 11619:1 21954:1
12852:1 12471:2 5981:1 12973:1 21613:1 1219:1 13300:1
2853:1 12471:1 15837:1 13843:1 2324:1 16553:1
10906:1 11619:1 4628:1 24128:1 24070:1 1419:1 25891:1 220:1 15836:1
28268:1 21940:1 25010:1 28634:1 14500:1 5838:1 22481:1
636:1 28499:1 18968:1 9595:1 22828:1 13795:1
4695:1 1287:1 27476:1 20212:1 20593:1 24247:1 1248:1 220:1 9166:1
9030:1 11142:1
18151:1 24459:1 19566:1 16817:1 13915:1 25890:1 17581:1
26363:2 20719:1
18058:1 11411:1 28487:1 16938:1 20687:1
24413:1 12896:1 21456:1 16375:1
26363:1 9019:1
22781:1 4362:1 19277:1 4238:1
25010:1 26447:1 21012:1
20549:1 2121:1 12193:1
14550:1 6784:1 22508:1 1297:1 22258:1
12471:1 17723:1 11104:1 10742:1 220:1 13843:1
15188:1 12857:1 4283:1 26518:1 19047:1
26861:1 22166:1 27888:1 17961:1
24301:3 13280:1 10444:1
21274:1 12471:1 17275:1 13843:1 27501:1 13196:1 25598:1
18155:1 25339:1 20795:1 14019:1 14016:1
16361:1 8984:1 13029:1 21881:1 220:1 27420:1
8706:1 17525:1 1297:1 563:1 28417:1 27251:1
12557:1 16060:1 8646:1
18876:1 14926:1 19662:1
23347:1 1296:1 19751:1 19817:1 21993:1
1382:1 11754:1 23250:1 18022:1 15869:1
6773:1 20992:1 18793:1 3744:1 15884:1
4443:1 9406:1 21051:1 7667:1 18793:1 11527:1 13186:1
18561:1 12471:1 7412:1 20082:1 18135:1 24325:1 13843:1 3101:1 23635:1 25598:1
314:1 18277:1 14525:1 22251:1 2579:1 1297:1 7492:1 26518:1 16553:1
12514:1 10286:1
10444:1 11619:1 22760:1 237:1
21171:1 13285:1
26632:1 5807:1 27476:1
9265:1 9453:1 13650:1 24430:1
5499:1 8637:1 15490:1 21483:1
38:1 12471:1 14914:1 1584:1 381:1 6772:1 7113:1 15106:1
28027:1 5438:1 15885:1 220:1 13790:1
7092:1 18261:1 1906:1 10845:1 7939:1
13164:1 22847:1 1297:1 26363:1 12791:1 23771:1 4643:1
23984:1 1419:1 13641:1
3976:1 4868:1
21661:1 18750:1 19916:1 6202:1 24499:1 10444:1 13548:1 16513:1
19709:1 11596:1 16740:1 17863:1 1297:1
9236:1 26363:1
2061:1 7728:1 3834:1 24509:1 28417:1 21356:1 23997:1 25557:1
26667:1 26363:1
24221:1 7032:1 5970:1 20010:1 23973:1
26963:1 855:1 16879:1 26828:1 10444:1 11953:1
20401:1 9465:1 10444:1 7302:1 12384:1 8197:1 5928:1 12471:1 220:1 1864:1 23052:1 13247:1 17317:1
10444:1 3330:1 3744:1 28506:1 6647:1
7767:1 6347:1
21805:1 12750:1 591:1 12311:1 24499:1 7348:1
17664:1 4601:1 11549:1 10023:1 19817:1 21292:1
18806:1 21879:1 7439:1 12471:1 5970:1 24499:1 3827:1 2324:1 20687:1 13843:1
19729:1 19187:1 10597:1 1297:1 13171:1 17270:1 15352:1 24499:1 2835:1
25128:1 11288:1 24499:1 14793:1 5711:1
25128:1 24499:1 26904:1 17194:1
686:1 3804:1 19817:1 220:1 22166:1
25236:1 808:1 16200:1 1297:1 14491:1
21506:1 14753:1 5437:1 25797:1 25323:1
12593:1 24050:1 8136:1 23454:1
23513:1 12471:1 11022:1 12954:1 19420:1 10444:1 18230:1 4643:1 6088:1
21525:1 19872:1 24730:1 10828:1 8465:1
21225:1 28536:1 11619:1
25105:1 19345:1 25010:1 12471:1
22737:1 22396:1 4392:1 14728:1 13926:1 21520:1 27420:1
4932:1 13908:1
27759:1 16746:1 3441:1 17428:1 14739:1 21983:1 20207:1
21661:1 24459:1 27965:1 19959:1 10444:1 19047:1 11218:1 18557:1 6596:1 13287:1 4643:1 220:1
28395:1 7439:1 16923:1 16879:1 17110:1 24499:1
4932:1 13908:1
1283:1 21772:1 16553:1 20546:1
11329:1 17651:1 12471:1 6448:1 6347:1
22848:1 18667:1 11619:1
13926:1 3191:1 18402:1 24712:1 14194:1 26508:1 28503:1
11174:1 20728:1 11969:1 24885:1 12144:1
7502:1 12302:1 687:1 16879:1
19649:1 6496:1
18694:1 26786:1 23777:1 11891:1 24940:1
8943:1 12471:1 28716:1 24790:1 24203:1 5311:1 21983:1 9406:1 220:1 3265:1
17389:1 19305:1 2221:1 11324:1 19541:1 12675:1 10444:1 220:1 1253:1
21879:1 20736:1 6163:1 1721:1 1287:1
2579:1 13887:1 8292:1 19751:1 24499:1 15815:1 1721:1 7348:1
13843:1 12471:1 16682:1
24838:1 5856:1 7412:1 13749:1 10444:1 6309:1 24499:1 16155:1 15465:1
9844:1 4932:1 1461:1
12799:1 12471:1 11022:1 6694:1 21211:1 16713:1 10444:1 220:1 17461:1
8051:1 16073:1 1297:1 14979:1
23773:1 13618:1 21613:1 28203:1
2367:1 5614:1 5970:1
21484:2 2054:1 9527:1 4163:1 20958:1 9187:1 7861:1 3063:1 220:1 21407:1
24301:4 6891:1 23277:1 10444:1 5152:1 3218:1 21879:1 25591:1 3589:1 3280:1 6111:1 220:1
2226:1 3589:1
26151:1 4848:1 19588:1 5200:1 25945:1
7290:1 9432:1 1493:1 10444:1 13996:1 1510:1 20812:1 14290:1 13693:1 13970:1 13501:1 220:1
10600:1 9957:1 10831:1 13046:1
15452:1 14582:1
17881:1 9461:1 6923:1 22251:1 4441:1 25886:1
22150:1 6564:1 12471:1 13165:1 18742:1 25012:1 22905:1 15648:1 13843:1
19937:1 9594:1 1659:1 20273:1 22605:1 24499:1 10444:1
4441:1 6594:1 16879:1
15452:1 14582:1
6274:1 9406:1 9555:1 19884:1 27733:1 6309:1 11637:1 13693:1
16374:1 28122:1
21983:1 4409:1
3720:1 1287:1 877:1 17389:1 7411:1 15465:1 220:1 7348:1
26604:1 19264:1 19488:1 21613:1
21274:1 15063:1 16554:1 4643:1
21879:1 24895:1 24791:1 22872:1 21145:1 19105:1
16802:1 526:1 692:1 19889:1 7959:1 10444:1 27200:1 3328:1
3385:1 20992:1 22231:1 4238:1
4077:1 15319:1 27272:1 22299:1
9737:1 7759:1
3249:1 10525:1 5278:1 4415:1 13276:1 12027:1 24377:1 10852:1
20022:1 12471:1 687:1 11246:1 21861:1 28506:1 13843:1
2021:1 1453:1 13522:1 11022:1
25810:1 13926:1 22829:1 21110:1
14343:1 7356:1
26363:1 9019:1
5256:1 6239:1 4932:1 13693:1 24791:1 69:1 11953:1
2218:1 5635:1 27116:1 11619:1 7348:1 18386:1 22895:1 24247:1 220:1 9166:1
2579:1 16682:1
5127:1 16073:1 1161:1 27603:1
23837:1 19884:1 26831:1 24486:1 13037:1 5908:1
17580:1 25267:1 22559:1
21755:1 5449:1 24896:1 14689:1 26156:1
11384:1 10901:1 12471:1 3572:1 24821:2 24301:1 21119:2 19018:1 220:1 22052:1
4810:1 24505:1 6361:1
18400:1 13383:1 10147:1 16916:1
7496:1 28437:1
12471:1 13843:1
22165:1 27087:1 24136:1 21050:1 24301:1
26817:1 8412:1 2575:1 6876:1 12:1 6618:1 21983:1 24791:1 19884:1
19483:1 19153:1 23152:1 17304:1 220:1
2226:1 3589:1
776:1 12731:1
8417:1 7032:1 24447:1 10277:1 2197:1 28417:1 28339:1 23418:1 24499:1 23296:1
63:1 19814:1 16248:1 11406:1
14602:1 2344:1
4932:1 13908:1
2853:1 7241:1 16553:1 7759:1
17615:1 11619:2 20353:1 21568:1 27272:1 21539:1 13693:1
14092:1 4128:1 15371:1 19517:1 6162:1 25713:1 16374:1 220:1
3361:1 24684:1 16923:1 14220:1 24499:1 6496:1 25890:1 220:1 21491:1
9332:1 17241:1 3441:1
27112:1 16804:1 14502:1 16879:1
25010:1 13744:1
22033:1 25010:1 4939:1 22410:1 2305:1
5587:1 21265:1 13196:1 220:1 6625:1
7275:1 12471:1 3441:1 17425:2 24301:3 3844:1 24922:1 19911:1
8095:1 6787:1 4101:1 10444:1 8568:1 8227:1 9324:1
563:1 16711:1
27142:2 16713:1 16189:1 4163:1
6396:1 25945:1
15732:1 17488:1
10444:1 26667:1 16200:1 16346:1 220:1 6743:1
5026:1 8133:1 7813:1 13926:1 22855:1 19937:1
15902:1 27216:1
27837:1 19817:1 7748:1 14943:1 25010:1 4875:1 26447:1 220:1 18328:1
1280:1 12471:4 3046:1 2662:1 23812:2 18889:1 17932:1 2700:1 22726:1 220:1
22848:1 18667:1 11619:1
7639:1 5945:1 4238:1 26840:1
21881:1 25890:1
21186:1 18646:1 7394:1 12471:1 21613:1 773:1 12963:1 24249:1 19656:1
20022:1 16085:1 14502:1
24499:1 17425:1
23132:1 27837:1 2810:1 5115:1
13718:1 21610:1 9639:1 19545:1
16181:1 23598:1 24499:1 11619:1 23239:1
27729:1 11619:1 4163:1 14793:1 9289:1 220:1
9311:1 19080:1 1831:1 14658:1 6625:1 12471:3
24499:1 11619:1
220:1 12471:1 3589:1 28634:1 28519:1 18743:1 5457:1 15198:1
25621:1 15177:1 10915:1 10910:1 8770:1
26963:1 1297:1 4238:1 25839:1 18270:1 28414:1 26518:1
23414:1 5743:1
15452:1 14582:1
14824:1 13046:1
18561:1 8842:1 10797:1 9595:1 10444:1 7107:1
15417:1 25010:1 14689:1 13207:1 21274:1 20982:1 4163:1
4854:1 18045:1 13046:1 12390:1 26307:1 220:1 1287:1
8449:1 6606:1 9057:1
25387:1 12049:1
23089:1 26127:1 19090:1 220:1 1287:1
24301:3 17834:1 3589:1 16484:1 25341:1 28359:1
380:1 11619:1
12022:1 8193:1 1297:1 23329:1 3484:1
23988:1 16098:1 15243:1 24070:1
18140:1 12471:1 95:1
14910:1 808:1 19884:1 19823:1 18743:1
686:1 13504:1 12906:1 11619:1 13191:1 7649:1 220:1
27848:1 28480:1
26400:1 17194:1 8477:1 1297:1 24499:1 16481:1 11733:1
12471:1 1559:1 28192:1
3007:1 12964:1
16904:1 3007:1 23629:1 21613:1 11292:1 15884:1
28391:1 28324:1 27855:1 12871:1
5992:1 14506:1 28188:1
24301:2 7412:1 19105:1 15104:1 8039:1 2180:1 10444:1 27272:1 220:1
16224:1 15235:1 23427:1 4297:1
7123:1 28081:1
26932:1 18230:1 24001:1 4746:1 661:1 11022:1
5256:1 12471:1 11619:1 3353:1 13843:1
1423:1 18068:1
18306:1 21971:1 6496:1 16923:1 220:1
26015:1 17151:1
2791:1 24499:1 15965:1 24605:1
4932:1 25611:1
4854:1 11243:1 7348:1 11619:1 6379:1 26508:1 1287:1
9236:1 12853:1 27425:1 17017:1
22848:1 15068:1 24499:1 3395:1 23578:1
15182:1 6301:1 17275:1 21949:1
11529:1 11619:1 7348:1
19187:1 4666:1 2559:1 10070:1 19653:1 27521:1
1992:1 1173:1 25555:1
15742:1 1505:1 21002:1 23955:1 18386:1 17255:1
4172:1 26779:1 220:1 28188:1
1814:1 18889:1 19488:1 16879:1 7468:1
10901:1 5992:1 10444:1
14138:1 6830:1 11224:1 220:1 22418:1
19294:1 15130:1 10329:1 13632:1 5127:1 9187:1 24499:1 28027:1
19858:1 12471:1 3447:1 2579:1 24499:1 24202:1 6816:1 13843:1
3589:1 2681:1
11274:1 26363:1 12471:2 15465:1
13455:1 24852:1 3194:1 1721:1
19305:1 1920:1
15866:1 20547:1 25415:1
12471:1 7966:1 21881:1 3057:1 6496:1 13196:2 220:1
16429:1 19109:1
28175:1 12471:1 23837:1 4507:1 15723:1 10444:1 9332:1 2847:1
2579:1 3027:1 22656:1
18759:1 25964:1 1121:1 13970:1 20874:1 15488:1 220:1 28740:1
15336:1 7348:1 22418:1 24499:1 19817:1 15465:1
2226:1 3589:1
28716:1 26903:1
24311:1 18135:1
28027:1 15885:1 26648:1 28284:1 10633:1 220:1
10444:1 12390:1 20242:1 21896:1 24499:1 22903:1 220:1
21274:1 12471:1 13046:1 28359:1 10014:1 27023:1 10444:1
14946:1 1505:1 3569:1 19884:1
25871:1 17710:1 2223:1 17425:1 23767:1 5082:1 11218:1 6794:1 2074:1
19557:1 16360:1 28411:1
17361:1 5026:1 12471:1 28563:1 15144:1 23673:1 24499:1 13926:1 26442:1
25774:1 19935:1 12471:1 24825:1 25890:1
15488:1 3186:1 5948:1 7110:1 15083:1 220:1 2074:1
27142:2 24529:1 25105:1 19880:1 10444:1 220:1
24381:1 8536:1 9756:1 24984:1
23939:1 19884:1
24301:3 3441:1 4020:1 21613:1
16221:1 14052:1 5645:1 7748:1 19231:1
21707:1 6371:1 208:1 2853:1 18157:1 17275:1 21808:1 17651:1 26199:1 2810:1 4146:1 220:1
1663:1 26652:1 19091:1 11619:1 18135:1 19515:1 23037:1 4163:1 10444:1 13887:1
6274:1 23062:1 15802:1 240:1 28417:1 2079:1
9772:1 24547:1
16500:1 24499:1 10444:1 6396:1 16682:1
25008:1 15177:1 19717:1 11868:1 16631:1 20728:2 21831:1
3993:1 10444:1 8999:1 24358:1 5963:1
7203:1 20207:1 28359:1
28519:1 28188:1
24548:1 12:1 14602:1 12471:2 10947:1 220:1 11384:1 2344:1 21279:1 21991:1 27230:1 22906:1
12857:1 21064:1 1071:1 5452:1 16553:1
8706:1 10333:1 12471:2 12390:1 26829:1
5820:1 15370:1 19122:1 3475:1 15587:1 23037:1 24499:1 220:2
13527:1 8205:1 4152:1 26779:1
17643:1 12471:1 28209:1 25673:1 1814:1 21593:1 26437:1 5142:1 220:1 26625:1
3361:1 151:1
21879:1 9304:1 4861:1 7502:1 28617:1 8766:1 16879:1
4492:1 24896:1 21983:1 9242:1 687:1
22848:1 18667:1
7454:1 8193:1
8748:1 19169:1 9964:1 19729:1 16764:1
28235:1 11235:1 9639:1 18186:1 7059:1
12134:1 12557:1 24730:1 3888:1
28022:1 12471:1 4939:1 13065:1 26046:1 5616:1 8155:1 727:1 22323:1 220:1 15377:1
8078:1 1297:1 19817:1 2196:1 20182:1
20534:1 2739:1
20534:1 2739:1
10162:1 3827:1
24048:1 23013:1 4932:1 15882:1
25105:1 23619:1 1974:1 13926:1 14610:1 4266:1
4932:1 25611:1
19193:1 18261:1 9215:1 24247:1 220:1 9166:1
12471:3 23831:1 26599:1 2810:1 7009:1 28265:1 10444:1 9655:1
8139:1 27085:1 3572:1 12:1 14321:1 24499:1
12831:1 10536:1 10444:1 12674:1 27647:1
26363:1 7127:1
12471:1 6596:1 18186:1 7348:1 20207:1 3720:1
1142:1 27112:1 7102:1 27425:1 26983:1
6682:1 21571:1 6955:1 21983:1 13300:1 6397:1
1461:1 25591:1 12390:1 21954:1
307:1 2138:1 12471:1 10970:1 2951:1 28676:1 13092:1
5614:1 12471:2 5749:1 20982:1 16017:1 10444:1 10652:1 220:1 9156:1
14906:1 3441:1 3114:1 24367:1 13632:1 24499:1
10901:1 24653:1
4712:1 12471:1 2137:1 5327:1 9336:1 22044:1 5457:1 220:1 26903:1
6784:1 13054:1 1297:1 12961:1
26064:1 14342:1 28326:1 24441:1 28506:1 2074:1
24529:1 24071:1 24301:3
8618:1 17390:1 11619:1 12837:2 24499:1 220:1 11405:1
25105:1 6698:1 980:1 13191:1 20214:1 23890:1 220:1 28188:1
14502:1 5501:1 10652:1
19459:1 17144:1 9639:1 22627:1 220:1 22088:1
28461:1 4755:1 21787:1 25010:1 24351:1
15866:1 12471:1 2329:1 3596:1 14658:1 15571:1
10959:1 15997:1 11619:1
519:1 11619:1 1946:1
14343:1 3894:1
5678:1 24143:1 13655:1 18147:1 7748:1 26540:1 28676:1 11521:1 27946:1
24298:1 20551:1 519:1 220:1
2769:1 17206:1 5253:1
20819:1 18820:1 27908:1 21671:1 16242:1
3296:1 2579:1 8833:1 120:1
10444:1 19901:1 5327:1 837:1 28303:1 14914:1
6818:1 28395:1 16879:1 23069:1 17426:1 687:1
6301:1 8205:1
6198:1 28716:1 21151:1 24467:1 220:1 26903:1
10349:1 28301:1 21713:1 8691:1 474:1 220:1
22019:1 7748:1 16879:1
22234:1 10682:1 1906:1 26540:1
24070:1 20006:1 207:1 14016:1
28027:1 23726:1 15885:1 27375:1 220:1
4238:1 14009:1 10444:1 5970:1 3917:1 10341:1 28690:1 15035:1 12471:1 12651:1 4861:1 26992:1 14053:1 21264:1
2579:1 4643:1
8012:1 9408:1
13926:1 21774:1 8080:1 23939:1
24643:1 6568:1 15802:1 27376:1 28564:1
11329:1 12471:1 22251:1 13926:1
26363:1 28047:1 1297:1 41:1 4163:2 21964:1 23967:2 10444:1 27272:1 220:1
20814:1 9453:1 18667:1 24791:1 18155:1
2197:1 16680:1 27992:1 6302:1 6935:1 12843:1
3027:1 28758:1 12471:1 26463:1 11022:1 1253:1 7253:1
21613:1 25236:1 11181:1
3191:1 21885:1 26266:1 28363:1 6496:1 220:1 3395:1
3806:1 18237:1 26740:1 12144:1 13938:1 12963:1
1225:1 17419:1 23162:1 14986:1 27660:1
18147:1 23984:1 21223:1 220:1 28188:1
11104:1 16324:1 8136:1 687:1
25105:1 14281:1 11619:1 16484:1 6186:1 7939:1
26363:1 19251:1 22638:1 15365:1 2579:1 10444:1 1558:1
18202:1 27854:1
15297:1 17123:1 11619:1 25123:1 17425:1 24499:1 9069:1
17834:1 6253:1 3280:1 7680:1 10444:1 20207:1
22895:1 5142:1 771:1
13843:1 12471:1 15892:1 17426:1 6793:1
17603:1 7847:1 12471:1 7775:1
15685:1 16712:1 11619:1 2344:1 4848:1 2462:1 1620:1 220:1 18691:1
12471:1 1297:1 14276:1 14646:1 21422:1 12635:1 13843:1
19889:1 470:1 16085:1 12852:1 19906:1
17304:1 23880:1
4854:1 15465:1 9513:1 4842:1 16519:1 18366:1 5901:1
25312:1 14281:1 11619:1 7468:1 6309:1 220:1
2499:1 19495:1 12471:1 14952:1 27561:1 1161:1 26646:1 220:1 25395:1
26363:1 5187:1
6685:1 15434:1 15064:1 19483:1 19153:1 5752:1 15040:1 220:1 12201:1
22905:1 16224:1 24335:1 16277:1 10635:1 10845:1
28325:1 18186:1 12593:1
28027:1 15979:1 20000:1 3437:1 24499:1 5457:1 14322:1
23782:1 12015:1 13322:1 8877:1 3186:1 10444:1 16455:1
9595:1 27272:1 19061:1
15776:1 7535:1 16712:1 27490:1 20354:1 13843:1 12471:1 4587:1
7903:1 1297:1 2229:1 21436:1 20728:1 21323:1 10845:1
28586:1 14689:1 855:1 20111:1 5199:1 23360:1
8774:1 15434:1 16871:1 4730:1 16374:1 2372:1 24499:1 15077:1 24590:1 12307:1
21939:1 7519:1 9937:1 8797:1 10742:1 16455:1 19015:1
16557:1 24441:1
14621:1 23086:1
24465:1 24499:1 220:1 27354:1 12471:1 9881:1 17151:1 6396:1
23705:1 13086:1 7739:1
6371:1 9957:1 2174:1 5281:1 19653:1 4643:1 16553:1
26363:1 19924:1 6745:1
20022:1 17361:1 12471:1 16553:1
26015:1 17151:1
16200:1 14067:1
21740:1 27272:1
21983:1 25010:1 14689:1 5457:1 3589:1
20728:1 10444:1 10983:1 3190:1
11591:1 16073:1 9141:1 22855:1
26401:1 15299:1 12471:3 15604:1 2810:1 26189:1 2969:1 1232:1 6111:1 19809:1
22234:1 12469:1 1040:1 7411:1 8568:1 1907:1 16945:1 23902:1
13453:1 13517:1
24422:1 9069:1 2579:1 17241:1 4743:1 8449:1
16374:1 28122:1
13881:1 17666:1
12471:1 16681:1 28359:1 28716:1 19277:1
28395:1 26363:1 9356:1
19911:1 12964:1
23069:1 21996:1
13767:1 15565:1 2121:1 381:1 22418:1
16620:1 9548:1 24344:1 3638:1 15427:1
12726:1 10036:1 23427:1 220:1 12564:1
4128:1 25737:1 1927:1 18457:1 24548:1 5457:1 220:1
15866:1 7935:1 21568:1 10863:1 12909:1
19294:1 21149:1 28718:1 14558:1
4128:1 23301:1 5464:1 10124:1 4643:1 220:1
5457:1 7619:1
20238:1 15177:1 26071:1 11619:1
22166:1 14525:1 1297:1 6306:1 1668:1 14502:1 220:1
17466:1 5975:1 3569:1 9079:1 16472:1
17475:1 24499:1 21940:1 19824:1 17425:1
2462:1 12853:1 19232:1 7748:1
686:1 7130:1 4875:1
17862:1 13046:1 19135:1 23660:1
8748:1 28281:1 24703:1 15837:1 28188:1
8748:1 21292:1 13074:1 25559:1 14402:1
22063:1 12190:1 27352:1 25340:1 24768:1
25105:1 28087:1 3841:1 6506:1 8712:1 23647:1
27759:1 5727:1 4341:1 22848:1 21525:1 687:1
23901:1 17476:1 22312:1
21274:1 12471:1 13196:1 21557:1 13843:1
15991:1 8136:1 4406:1 16621:1 27327:1 5455:1
22657:1 14220:1
10535:1 14502:1 18058:1 6193:1 15427:1
23988:1 26363:1 21338:1 13055:1 2221:1 11839:1 10444:1 21407:1
20987:1 759:1 25537:1 20592:1 6332:1
9124:1 17151:1 12693:1 20830:1
19836:1 28633:1 26823:1 5975:1
28229:1 1927:1 20393:1 17877:1 6481:1 9271:1
10672:1 24653:1
5553:1 15997:1 7820:1 220:1
22150:1 12831:1 13165:1 25620:1 18124:1 12302:1 21525:1 9461:1
19814:1 27743:1 17664:1 11619:1
27059:1 8113:1 8133:1 8061:1 23673:1 466:1 24499:1
22722:1 21499:1
3018:1 8055:1 7728:1 23775:1 27251:1 15648:1 4238:1
6301:1 18170:1
22721:1 6292:1 23727:1 10444:1 26247:1 220:1 1287:1
9335:1 15892:1 12937:1 95:1
1926:1 17053:1 3469:1 19911:1 13092:1 10828:1
20912:1 5198:1 10444:1 20485:1
16374:1 3596:1 16226:1 1698:1
12797:1 26518:1
2214:1 10444:1 22823:1 23837:1
15976:1 15182:1 13398:1 16472:1 3681:1 220:1
14567:1 6000:1 19564:1 27251:1 18502:1 12471:1 10828:1 13843:1
12471:2 7853:1 22158:1 4829:1 17512:1 28781:1 4238:1
26363:1 5187:1
22657:1 13492:1 21443:1 6496:1 26363:1 220:1
21879:1 14476:1 4939:1 1225:1 12:1 25010:1
12471:1 20234:1 23099:1 10444:1 24499:1 20237:1 11218:1 14854:1
25418:1 11619:1 18484:1
16374:1 28122:1
25236:1 24381:1 14112:1 16553:1
7439:1 7502:1 12:1 21525:1 22633:1 13300:1
13092:1 12471:1 27906:1 22445:1 9608:1
9188:1 2127:1 21813:1 1675:1
16271:1 24499:1 18858:1 26412:1
5378:1 24499:1 12471:1 10587:2 28419:1
27759:1 28395:1 12471:1 24459:1 13170:1
22333:1 2579:1 12854:1
23673:1 3361:1 12640:1 17666:1
2769:1 20281:1 12471:2 20313:1 9948:1 2810:1 19311:1 22591:1
23946:1 20125:1 14928:1 25664:1 220:1 12307:1
15253:1 12471:1 24862:1 11913:1 1992:1 13843:1
18306:1 18095:1 24499:1 4939:1 28487:1
3120:1 9435:1 5948:1 15488:1 23078:1 9753:1 220:1
16710:1 20484:1 26983:1 9756:1
12471:1 24584:1 1253:1 23513:1 9061:1 6496:1
20059:1 12471:1 24372:1 4116:1 23866:1 10850:1 26646:1 9803:1 220:1
19883:1 8227:1
14343:1 2055:1 24499:1 19264:1
17948:1 11064:1 3330:1 2339:1 7748:1 16553:1
10199:1 15366:1 16712:1 28554:1 1784:1
26363:1 14506:1
16224:1 11719:1 28417:1 2579:1 23896:1 5988:1
24903:1 14451:1 11612:1 9639:1 13926:1 22909:1 13300:1
26015:1 4072:1
6719:1 4273:1
2424:1 15253:1 3864:1 8080:1 16553:1
9594:1 12471:1 13046:2 6292:1 220:1
16154:1 6347:1
4932:1 995:1
16374:1 11704:1 17270:1
22453:1 1297:1 9146:1 439:1 20728:1 24499:1 4643:1
2579:1 23574:1 16879:1 9442:1
3227:1 1061:1 5524:1 6618:1 6496:1 8639:1 2642:1
3385:1 17998:1 2209:1 11877:1 7348:1 27420:1 220:1 3720:1
16554:1 26426:1
8131:1 13612:1 25236:1 12471:1 3328:1 28634:1 26646:1 21149:1 15565:1 220:1
9236:1 28716:1
1300:1 24499:1 7351:1 687:1 21799:1
9203:1 788:1 13042:1
6893:1 686:1 18328:1 13191:1 220:1 7348:1
15338:1 10444:1 22049:1 6895:1 4939:1
1287:1 14587:1 6163:1 9371:1 1166:1 21590:1 24247:1 220:1 9166:1
21274:1 13196:1
23858:1 1118:1 12343:1 24582:1
7502:1 1440:1 9737:1 15802:1
26015:1 17151:1
17460:1 11076:1 8691:1 15797:1 11619:1
1309:1 15488:1 5499:1 20874:1 4163:1 896:1 220:1
28658:1 4932:1 11619:1
1723:1 24499:1 23013:1 13968:1 7100:1
10672:1 24653:1
18832:1 10014:1 12134:1 10266:1 10444:1 19817:1 14016:1
9034:1 26867:1 25010:1 12842:1 11160:1
15452:1 14582:1
10444:1 14699:1 3864:1 3720:1
21613:1 17963:1 9703:1 19884:1
12471:1 27906:1 4527:1 24709:1 27946:1 16553:1 13843:1
1689:1 6564:1 718:1 7937:1 3861:1 15184:1 13300:1
2853:1 2579:1 20277:1 5198:1 11291:1 24180:1
25235:1 6292:1
23874:1 25312:1
2624:1 28385:1 12471:3 13533:1 26477:1 12807:1 10598:1 21516:1 24499:1 25240:1 6675:1
24329:1 1121:1 11240:1
27697:1 22296:1
18009:1 8400:1 7409:1 3441:1 10444:1 11902:1 19331:1
16484:1 11619:1 24365:1 9778:1 24499:2 20811:1 18186:1 23841:1
21628:1 21525:1 27600:1
15417:1 23705:1 12193:1 27016:1
8193:1 1297:1 11022:1 67:1
24482:1 26363:1 8136:1 28395:1 28676:1 13300:1 12448:1
5572:1 25738:1
20335:1 9898:1 22737:1
26457:1 12767:1 3649:1 3720:1
15802:1 19906:1 28230:1
5165:1 2285:1 1721:1 15941:1 15535:1 220:1
28175:1 25336:1 8133:1
1992:1 19169:1 15892:1 19417:1
26736:1 25010:1 15802:1 22312:1 23778:1
1297:1 3744:1 10853:1
4505:1 2810:1 25290:1 1763:1
3284:1 17425:1 11961:1
10444:1 5602:1 10036:1 55:1
16224:1 23705:1 13086:1 9265:1
3129:1 16746:1 28417:1 14739:1 24499:1 10444:1 5452:1 16704:1
25890:1 3589:1
4153:1 1297:1 24130:1 24455:1 16879:1
28494:1 26199:1 17275:1 220:1
14502:1 27917:1 1297:1
16455:1 28634:1
12471:1 14149:2 939:1 220:1
26363:1 12471:1 4587:1 10595:1 8401:1 15465:1
25236:1 20796:1 14381:1
7642:1 23296:1 4742:1 687:1 8766:1
22848:1 18667:1
17269:1 26220:1 4643:1 19972:1
5311:1 13693:1
3740:1 28170:1 17428:1 10708:1 1723:1 21881:1 494:1
16740:1 1297:1 22410:1 15303:1 2579:1 26181:1 28188:1
21233:1 9412:1
16553:1 27825:1 19884:1
2555:1 12471:1 14689:1 23939:1 19959:1 9911:1
10778:1 19763:1 11033:1 15452:1 26887:1 13691:1 220:1 2017:1
5678:1 14016:1
21274:1 12471:1 11619:1 17275:1 27501:1 13196:1 26049:1 13843:1
220:1 11985:1 8511:1 24944:1 10444:1 4834:1 24327:1
8522:1 25812:1 25301:1 18388:1
24499:1 17425:1
18306:1 5679:1 13926:1 15084:1 19031:1
23773:2 12471:1 8959:1 4163:1
21539:1 21613:1 12658:1 1245:1 4891:1 9051:1 25267:1
2579:1 1461:1 16071:1 10742:1
17466:1 15965:1 3190:1
1992:1 2579:1 11913:1 21613:1 27327:1 24499:1 95:1 4651:1
10708:1 3740:1 24499:1 26429:1 20595:1
28027:1 24301:1 13655:1 5437:1 13970:1 18317:1 11667:1 18709:1
8095:1 28506:1
19296:1 10036:1 10651:1 7970:1
26199:1 17275:1
16827:1 22526:1 687:1
5903:1 16445:1 2329:1 20162:1 26328:1 6573:1 17415:1 220:1 3808:1
24301:3 10147:1 25801:1 9024:1 21443:1
24499:1 12:1 7842:1 19348:1 2579:1
6818:1 24661:1 16052:1 19732:1 9973:1 20343:1
10329:1 21511:1 2344:1 4848:1 2015:1 24997:1 220:1
24301:2 4471:1 10444:1 22638:1 19539:1 3720:1 3894:2 17335:1 12471:1 7196:1 21092:1 24499:1 28593:2 2174:1 11065:1
3882:1 21043:1 14110:1 19702:1
13548:1 25235:1 12279:1
12471:1 13595:1 5641:1 6234:1 12635:1 687:1 13843:1
11619:1 24863:1 14048:1 20064:1 5856:1 220:1 17615:1
16554:1 10444:1 11619:1 3375:1 24499:1 26220:1 25890:1 21825:1
19976:1 12471:1 12937:1 17651:1 26049:1 13843:1
19917:1 16588:1 12471:1 13843:1 14502:1 22779:1
16455:1 26305:1 11142:1
18847:1 14689:1 13362:1 4387:1 6301:1 20011:1 6347:1
2772:1 21135:1
1300:1 1719:1 25290:1 14502:1 13705:1 687:1 11197:1
452:1 6056:1
5738:1 20281:1 23887:1 13478:1 770:1
12711:1 13614:1 1906:1 15782:1
154:1 9548:1 10595:1 11961:1
5544:1 16155:1
25095:1 15226:1
669:1 12471:1 17325:1
2945:1 11218:1 2196:1 24180:1
7032:1 12471:1 15488:1 220:1 23301:1 1121:1 14033:1 12617:1 1118:1 7748:1
26932:1 17466:1 26220:1 19010:1
2956:1 27622:1 28730:1 18858:1 16080:1
11913:1 8536:1
21226:1 17645:1 4681:1 11022:1 25010:1 25871:1 24873:1 24499:1
22251:1 4238:1 5904:1 23430:1
14343:1 1297:1 13881:1
24195:1 25267:1 13186:1 367:1 22895:1
7439:1 15177:1 6638:1 10286:1 21613:1 16374:1 11104:1 427:1 12471:2 10810:1 220:1
20982:1 9595:1
24895:1 10444:1 220:1 8766:1
24499:1 4829:1 2430:1
22656:1 10444:1 19751:1 13970:1 20874:1 12471:1 4163:1 177:1 3569:1 714:1
12022:1 23734:1 11077:1
28027:1 13073:1 1297:1 21548:1 3794:1 11092:1 14502:1 220:1 25377:1
15280:1 18630:1 15712:1 10791:1 9238:1 4641:1 6982:1 220:1
16374:1 28122:1
22848:1 18667:1 11619:1
22595:1 10845:1
1782:1 27420:1
9498:1 26644:1 23773:1 26590:1 24056:1 21983:1 7348:1
12937:1 601:1 24709:1
14550:1 10901:1 12557:1 17579:1 12973:1
27946:1 1522:1 26644:1
20992:1 7496:1 25581:1
6301:1 3738:1 14502:1 4643:1
13887:1 220:1 9595:1 21802:1 14876:1 2372:1 25256:1
2648:1 18793:1 12683:1 220:1
2127:1 10444:1 8298:1 9187:1
3582:1 22245:1 5645:1 16554:1 220:1 10356:1
1999:1 28387:1 1655:1 18756:1 12:1 7673:1 26655:1 17002:1
3434:1 17932:1 1118:1 6193:1 16879:1
686:1 25761:1 16788:1 28280:1 1451:1 220:1
10586:1 8877:1 13655:1 1297:1 8133:1 12000:1 18858:1 24499:1 11154:1 8748:1 25697:1
15866:1 13042:1 13866:1
6496:1 4142:1
2287:1 26963:1 12407:1 19770:1 24070:1 1864:1 23251:1 13926:1
23896:1 25311:1 4266:1
9236:1 26363:1
14281:1 7853:1
21121:1 23043:1 13926:1 26202:1
25130:1 5456:1
1309:1 9756:1
124:1 27472:1
6876:1 16588:1 18776:1 15869:1 7381:1 6706:1
13113:1 25067:1 21300:1 6972:1 26966:1
12658:1 4195:1
21568:1 7412:1 12098:1 8254:1
8519:1 4392:1 628:1 15357:1
20904:1 15063:1 10974:1
776:1 12731:1
5199:1 6589:1 19675:1 25945:1 14735:1 19426:1 14502:1 1297:1
21879:1 4861:1 5449:1 23574:1 23454:1
15507:1 26955:1 20242:1 2700:1 8510:1 20728:1
13629:1 751:1 9453:1 20814:1 21737:1 14729:1 5970:1
9238:1 24547:1
686:1 25369:1
9594:1 3441:1
23666:1 2555:1 17172:1 5039:1
3361:1 3635:1 12638:1 20716:1 22971:1 6186:1 10199:1 56:1
21871:1 6367:1 15190:1 10613:1
307:1 27472:1 9922:1
17361:1 24565:1 12471:1 25319:1 22463:1 24499:1 23896:1 13843:1
1255:1 23858:1 5051:1 12651:1 14705:1 25514:1 9130:1
10901:1 21954:1 16435:1 19924:1 7348:1
24572:1 25236:1 13556:1 9146:1 14550:1 27622:1 14144:1
12471:1 25877:1 4629:1 23302:1 8384:1 26646:1 6690:1 220:1 4266:1
17475:1 3227:1 19343:1 4815:1 12658:1 14525:1 26051:1 21613:1 23705:1
9188:1 25010:1 21983:1 5647:1
12471:1 7436:1 9548:1 13843:1 3638:1 26049:1 17113:1
6209:1 10400:1 16010:1 24499:1 5508:1 2463:1
14420:1 11619:1 27472:1 24499:1 10444:1 10067:1 10845:1
12471:3 21225:1 17149:1 18366:1 9141:1 14033:1 24499:1 13926:1 9911:1 1118:1
15802:1 17834:1 20706:1 10228:1 11961:1
20912:1 9911:1 10444:1 12240:1 7348:1
21311:1 21879:1 1461:1 15802:1 11619:1
17975:1 24499:1 1297:1 24200:1 21274:1 5499:1 14792:1 26887:1
12471:1 13046:2
1423:1 18068:1
23820:1 14689:1
1818:1 12471:1 19648:1 7234:1 3744:1 13843:1
23374:1 11022:1 5452:1
17389:1 16443:1 19305:1 11619:1 220:1
5198:1 12852:1 18272:1 6690:1
17846:1 15612:1 8388:1 2579:1 12471:1 9756:1 6381:1 13843:1
4119:1 26220:1 11619:1
18630:1 13970:1
21879:1 16065:1 16689:1 2810:1 19911:1 24895:1 22761:1 21525:1 14335:1
2429:1 12471:1 4691:1 13843:1 13926:1 26239:1 25267:1 22418:1
4932:1 13908:1
6625:1 12428:1 11619:1
8522:1 10444:1 5250:1 2197:1 3330:1
19122:1 7830:1 28188:1
17378:1 11619:1
19911:1 28506:1 27398:1 25377:1
1297:1 1185:1 24499:1 8804:1 11681:1 220:1 27272:1
24051:1 6923:1 1386:1
17389:1 19305:1 11619:1 15297:1 21050:1 220:1
11122:1 21983:1 220:1
6371:1 12795:1 12471:1 25591:1 13926:1 208:1 13843:1 23896:1 220:1 8465:1
27526:1 4587:1 16553:1 17113:1 3864:1
16553:1 13887:1 4709:1
6505:1 15837:1 7314:1
14528:1 140:1 24499:1 21482:1
2648:1 9594:1
12852:1 18867:1 3057:1 6496:1 10124:1 220:1 7728:1
15868:1 12404:1
5494:1 12726:1 13839:1 18988:1
8120:1 13887:1 2344:1
12854:1 16553:1
16374:1 18018:1 21740:1
8386:1 23360:1 14176:1 11022:1 15182:1 1512:1 14828:1 220:1
20877:1 8582:1 4423:1 7348:1 23778:1 18155:1
11937:1 23410:1
1280:1 18045:1 28359:1 4163:1 8681:1 26307:1 220:1 9130:1
16374:1 11704:1 17270:1
20812:1 10444:1 898:1 21186:1 12471:1 220:1 1673:1
2224:1 10444:1 994:1 6496:1 220:1 15962:1
9453:1 15802:1 9973:1 16013:1
16374:1 11704:1 17270:1
20142:1 15488:1 11022:1 10613:1 220:1 1287:1
10901:1 3281:1
16427:1 8618:1
1297:1 687:1 8136:1 18135:1 14502:1 8639:1 220:1
16374:1 28122:1
22227:1 2475:1 3612:1 10490:1 85:1 24499:1 17825:1 19047:1 220:1
4149:1 16802:1 25879:1 8804:1 23037:1 24499:1 13150:1 220:1
26908:1 23824:1 28417:1 5829:1
20082:1 15544:1 2196:1 13300:1
23939:1 24529:1
15269:1 1297:1 3572:1 19884:1 4932:1 10444:1 220:1 25761:1
26438:1 18858:1 7774:1 14286:1
15297:1 23967:1 14281:1 18186:1 4163:1
21881:1 6086:1
25589:1 13199:1 19906:1 6347:1
15742:1 14986:1 17834:1 1461:1 27837:1 3441:1 12471:1 9231:1 6309:1 21315:1 13843:1
1190:1 17241:1 22206:1
8323:1 18449:1 3349:1 8461:1 220:1
17720:2 14946:1 11896:1 1297:1
24632:1 11815:1 24824:1 6968:1 19838:1
14343:1 25014:1 10329:1 12471:1 3894:1 4307:1 16484:1
1074:1 10036:1 16778:1
20895:1 12471:1 28716:1 27508:1 220:1 26903:1
26018:1 16445:1 1399:1 18261:1
25916:1 5538:1 23917:1 22757:1
7496:1 10444:1 753:1 16013:1 27136:1 12934:1 16221:1 24499:1 21983:1 220:1 7348:1
15253:1 21654:1 7759:1 20354:1 22019:1 220:1
5198:1 27420:1 24180:1 4266:1
22150:1 24896:1 11114:1 19911:1 18:1 11997:1
8842:1 439:1 20728:1 15746:1 14910:1
22166:1 28188:1 1253:1 18444:1 24499:1 6496:1 17073:1 220:1 17884:1
13749:1 22869:1 18721:1 4238:1 10901:1
9772:1 24499:2 12471:1
18688:1 95:1 6071:1 6347:1
16297:1 13752:1 11865:1
7639:1 18472:1 25193:1 4238:1
26015:1 4072:1
4854:1 20162:1 26155:1
12471:2 7983:1 4860:1 5963:1 2810:1 13039:1
12711:1 26933:1 15613:1
4932:1 13908:1
19809:1 2769:2 20281:1 12471:3 2810:1 28664:1 19875:1 3286:1 11801:1
14458:1 2197:1 2121:1 25646:1 8866:1
24499:1 22394:1
15067:1 24499:1 7351:1 95:1 6745:1
10810:1 12471:1 23816:1 21613:1 24499:1 2797:1 220:1 4238:1
23906:1 23574:1 28417:1 14502:1
14946:1 16200:1
6367:1 26305:1
19305:1 1920:1
686:1 25761:1 237:1 490:1 220:1 6366:1
8866:1 18457:1
27729:1 22394:1
3569:1 24007:1
1908:1 10544:1 161:1 9155:1
22050:1 28487:1 13329:1 28405:1 5449:1 13065:1
14343:1 4764:1 24681:1 11619:1 28624:1
19122:1 27341:1
12831:1 13938:1 10444:1 1253:1
12471:1 18667:1 16938:1 14254:1 18502:1 26239:1 13843:1
12658:1 9717:1 7748:1 9328:1 9777:1
20313:1 22413:1 9948:1 2810:1 27118:1 12471:3
9965:1 2579:1 13650:1 7759:1
22166:1 8866:1 25267:1 12658:1 17151:1 9918:1 220:1 28791:1
21300:1 5142:1 11619:1 8264:1 27420:1
1967:1 19770:1 11619:1 22203:1 9595:1 17876:1
12471:1 13693:1 13938:1 3186:1 23209:1 15789:1
26867:1 3572:1 18756:1 9271:1 28643:1 14016:1 10444:1 21252:1 21363:1 16013:1
17466:1 3190:1
12678:1 17655:1
19187:1 12471:2 7412:2 3441:1 13843:1 9639:1 4875:1 220:1 5115:1
14515:1 18674:1 3976:1 21189:1
4800:1 3227:1 12:1 21613:1 24944:1 25979:1 10444:1 220:1 3572:1
5678:1 4861:1 12471:2 4163:1 5907:1 1253:1 10444:1 26363:1 27272:1
16374:1 28122:1
3027:1 4763:1 10856:1 16347:1 22567:1 26196:1
49:1 21983:1 3441:1 15869:1
13541:1 7022:1 24529:1
12:1 27557:1 2785:1 4742:1
14128:1 12582:1 10036:1 15997:1
19814:1 20728:1 9783:1
21311:1 24301:3 1642:1 21613:1 11246:1 12471:1 13843:1
22796:1 9506:1 13821:1 4259:1 6118:1 220:1 19020:1
15253:1 11719:1 8136:1 6181:1 25128:1 4861:1 1992:1
4119:1 26220:1 11619:1
9639:1 17275:1 3595:1
11402:1 12964:1
17301:1 3226:1 12471:1 13866:1
15406:1 22384:1 12471:1 7103:1 6496:1 220:1
3027:1 12521:1 7861:1 13926:1
21723:1 11815:1 17193:1 2461:1 4641:1 220:1
19352:1 25926:1 558:1 20370:1
21274:1 10036:1 5915:1 28359:1
12378:1 17680:1 8080:1
686:1 13191:1
10901:1 2197:1 22497:1
4932:1 995:1
20826:1 18608:1 7196:1 10954:1
24301:3 27921:1 2074:1
26932:1 10283:1
413:1 21940:1 25549:1 10241:1
15197:1 28165:1 1297:1 220:1
20545:1 25414:1 2197:1
21274:1 12471:1 17275:1 27501:1 13196:1 19211:1 13843:1
1309:1 20307:1 11259:1 11619:1 20724:1 9595:1 24499:1 10444:1 4847:1 220:1 20595:1
12140:1 10626:1 10970:1 20354:1 220:1 2856:1
24499:1 9595:1 25010:1 26043:1 7918:1
13502:1 12471:1 1121:1 24465:1 17970:1 4847:1 28811:1 10858:1 19018:1 220:1
3441:1 10444:1 21897:1 21983:1 4134:1 4266:1
23884:1 3841:1 5498:1 15616:1 20060:1 19153:1 220:1 17089:1
5127:1 25301:1 1297:1 11619:1 8227:1
18900:1 220:1 2482:1
21755:1 27013:1 17710:1 11225:1 4441:1 15836:1 9265:1
12044:1 23629:1 11619:1 9187:1 6379:1 16435:1 220:1 18767:1
28027:1 10901:1 7574:1
12471:1 19564:1 23606:1
1225:1 19968:1 20084:1
16374:1 11704:1 17270:1
10983:1 4932:1 5626:1 26845:1 28414:1
14112:1 15869:1 9655:1 20775:1 19817:1 15465:1
5311:1 10036:1
18719:1 16155:1 18932:1 220:1
26363:1 21565:1
18018:1 9513:1 3441:1
14343:1 8133:1
25312:1 13655:1 14381:1 23988:1 10045:1 3794:1 220:1
17635:1 20370:1 18667:1 13065:1 27314:1 1113:1 19884:1
12982:1 27216:1 687:1 2856:1
19648:1 22973:1 21901:1 13843:1 2579:1 21613:1 24344:1 24499:1 12471:1 9334:1
28021:1 10036:1 10444:1 17903:1 24945:1
12471:1 27906:1 14276:1 25927:1 12635:1 13843:1
20116:1 3589:1
23529:1 26611:1
13843:1 12471:1 7082:1 12378:1 24433:1
7689:1 6483:1
21464:1 28481:1 21151:1
19809:1 3436:1 12471:2 9948:1 2810:1 12614:1 28265:1
9772:1 8400:1
25324:1 5567:1 10277:1 28643:1 13276:1 7775:1
21879:1 771:1 18058:1 8568:1 24895:1 9441:1 687:1
28359:1 16484:1 15182:1 24499:1 3681:1 9783:1 220:1
24025:1 18243:1 25010:1 20484:1
14221:1 12134:1 10444:1
10521:1 20992:1 20763:1 25890:1 21121:1
18759:1 26610:1 2579:1
2579:1 1059:1 9548:1 24499:1 12854:1 6347:1
11104:1 12471:1 5981:1
26363:2 20719:1
3051:1 21225:1 25664:1
26963:1 12471:1 11284:1 2121:1 589:1 13970:1 7680:1 12240:1
24499:1 12471:1 3441:1 168:1 18243:1 13843:1 25819:1 17125:1 17666:1
26316:1 26761:1 24499:1 10444:1 15020:1
21815:1 2431:1 429:1 14937:1
7896:1 6347:1
4932:1 13908:1
17466:1 6292:1 8136:1 19884:1 321:1 7748:1 23705:1 13186:1 26860:1
10901:1 24499:1 21713:1 28188:1 14016:1
12551:1 16374:1 28122:1 24499:1 14604:1
26072:1 220:1 6327:1 6302:1 756:1 2224:1 28716:1
20270:1 15997:1
22161:1 24301:3 9952:1 21670:1 26540:1 24499:1 27420:1
3760:1 6971:1 20242:1 22011:1 1727:1 24499:1
3328:1 16198:1
15253:1 23353:1 687:1
4540:1 24227:1 11619:1 2558:1
24643:1 4743:1 28564:1
12551:1 16374:1 28122:1 24499:1 14604:1
6620:2 12471:1 28487:2
24777:1 10444:1 1283:1 19359:1 24500:1 6960:1 20874:1 11498:1
20022:1 14515:1 2579:1 2048:1 5334:1
18399:1 1703:1 25325:1
22150:1 4238:1 1219:1 19201:1 21525:1 11213:1
20874:1 19959:1 28188:1
4713:1 4270:1 26964:1 15243:1
24350:1 10906:1 23602:1 11619:1 15072:1 16612:1 10153:1
12906:1 25397:1
1427:1 161:1 2401:1 3512:1 5373:1 7759:1 16553:1 95:1
16374:1 26694:1 22475:1 12471:1
