14946:1 1258:1 22234:1 13887:1 28487:1
4820:1 4361:1
19062:1 26134:1 27766:1 24913:1
6224:1 23253:1 23360:1
8893:1 20077:1
13887:1 3766:1 24499:1 4188:1 10897:1 7348:1
9203:1 8681:1 12471:1 16435:1
14520:1 7432:1
8402:1 13092:1 27966:1
26165:1 5045:1
13367:1 24499:1 16168:1 13934:1
28217:1 14698:1 16582:1 25462:1
5846:1 23637:1 4129:1 24987:1 13641:1
21610:1 15802:1 11619:1 21613:1 220:1 18691:1
9238:1 24499:1 8737:1
2197:1 12002:1 21666:1 28375:1 6149:1 10997:1 15836:1
28807:1 2218:1
18876:1 15507:1 21966:1
10114:1 27459:1 7740:1 28643:1 13440:1 8063:1 7348:1
3634:1 10266:1 19210:1
14997:1 24499:1 20160:1 13388:1
7401:1 3103:1 8292:1
21297:1 24499:1 23919:1
14221:1 7876:1 4681:1 20242:1
12557:1 18636:1 16013:1
9238:1 24499:1 8737:1
25615:1 10453:1 25010:1 27262:1 15031:1
28217:1 27138:1 5024:1 9313:1 18017:1 10783:1 9481:1 24499:1 8203:1
13687:1 15815:1 10482:1
5247:1 3589:1
26458:1 25673:1
9452:1 16554:1
7728:1 19105:1 22418:1
12560:1 15866:1 10444:1 14712:1
21303:1 2062:1 7515:1
26106:1 12449:1 7335:1
23013:1 2694:1
21613:1 3007:1 9166:1
11999:1 22450:1 4195:1 10876:1 25061:1 24499:1 10444:1
17159:1 25426:1 367:1
16339:1 12443:1 27805:1
13934:1 4983:1 22737:1 17834:1 12193:1
3536:1 26399:1
13388:1 2699:1
20982:1 5928:1 12471:1 27102:1 12002:1
26434:1 4021:1 25256:1
9238:1 24499:1 8737:1
8002:1 22676:1
13243:1 11395:1
26834:1 13300:1 847:1
13733:1 9532:1 5092:1
21300:1 20662:1 18674:1
27943:1 22942:1
7770:1 10659:1
21820:1 2244:1
20237:1 16143:1 14667:1
21613:1 19668:1 28028:1
3280:1 25927:1 1738:1 26963:1 13354:1 1289:1 2015:1 24499:1
16802:1 4754:1
17310:1 25389:1
13558:1 26555:1
26932:1 3717:1 12557:1 25971:1 4932:1 9406:1 16081:1
17881:1 13934:1 2127:1
2214:1 15190:1 1287:1
22734:1 17881:1 15531:1 8639:1 526:1
26793:1 26399:1
13457:1 10742:1 27751:1
24499:1 2197:1 9321:1 6292:1 18505:1
24838:1 24056:1 9234:1 3126:1
20948:1 20560:1 9438:1 23411:1 12478:1 9238:1 24499:1 23778:1 28755:1
24499:1 24661:1 26592:1 25802:1
22925:1 13639:1
2846:1 8292:1
10444:1 693:1
17881:1 12399:1 1297:1 12645:1
23569:1 24745:1 5833:1
21247:1 9500:1 15326:1 9332:1 18095:1 6674:1
5368:1 9898:1 11619:1
16374:1 11847:1 7824:1 27977:1
9238:1 24499:1 8737:1
12560:1 10444:1 18592:1 12002:1
9857:1 14684:1 24173:1
27563:1 14614:1
5936:1 5199:1
19124:1 26057:1
27335:1 24791:1 23062:1 220:1 14138:1 12954:1 28716:1 10533:1
25051:1 16864:1
25194:1 1538:1 11538:1 7798:1 16766:1 24499:1 12706:1
5247:1 3589:1
12653:1 24996:1 23902:1
14409:1 27425:1 25827:1 2945:1 21284:1 220:1 12254:1
24879:1 7876:1
7401:1 3103:1 8292:1
9238:1 24499:1 8737:1
9864:1 18477:1
25381:1 21720:1
18657:1 1369:1
18191:1 11782:1 217:1 15177:1
8917:1 25524:1
25871:1 20061:1 17695:1
16554:1 12869:1 22618:1 3020:1
9238:1 24499:1 8737:1
18191:1 24499:1 16236:1
25081:1 12471:1 813:1 16221:1 7348:1 95:1 27583:1 8741:1
2458:1 12:1 14307:1 23396:1
9238:1 24499:1 12478:1
2287:1 847:1
25786:1 17357:1 2218:1
17917:1 18298:1 25945:1
9238:1 24499:1 8737:1
5247:1 3589:1
3385:1 22418:1 16155:1 28188:1
5970:1 12888:1
19712:2 11619:1
7951:1 5867:1
4820:1 16802:1
21610:1 12002:1
15253:1 15040:1 7466:1
21484:1 9147:1
23954:1 26508:1
15338:1 19902:1 23455:1 23418:1 15778:1 220:1 2497:1
11230:1 18026:1 15237:1
13926:1 11619:1
4854:1 20728:1
26319:1 1835:1 7496:1
13086:1 7401:1 12471:1 13388:1 12564:1
18220:1 13046:1 11619:1 9528:1
8890:1 4912:1 10774:1
25664:1 9939:1 3991:1
4801:1 2215:1 28359:1 8597:1
21613:1 24499:1 9821:1
16500:1 25267:1
21591:1 24499:1 23602:1 20545:1 20874:1 9793:1 1723:1 6186:1 16518:1
7899:1 4825:1 28692:1
24682:1 10374:1 27081:1 16455:1 22685:1
10444:1 12033:1 25016:1
11785:1 15531:1 4643:1 22865:1
3249:1 27839:1
13177:1 9406:1 28457:1 24499:1 14083:1 24552:1
2417:1 24499:1 25591:1
25336:1 16929:1
4415:1 8302:1
10600:1 7302:1 21539:1 11815:1 20462:1
9238:1 24499:1 8737:1
6546:1 3806:1 9821:1 3048:1 21648:1
17445:1 21300:1 1297:1
6773:1 21591:1
5198:1 1616:1 1313:1
23708:1 3691:1
5078:1 21482:1
12196:1 26963:1 12471:1
21033:1 21591:1
21983:1 24773:1 19538:1 14896:1
20982:1 19146:1
19305:1 18889:1
20545:1 23418:1 24499:1
28804:1 8041:1 12158:1
20026:1 10444:1 25256:1
15147:1 23834:1 28047:1 20010:1 26552:1
27075:1 24499:1 25897:1 28209:1 19105:1 8916:1 15371:1 22722:1 12471:1 6118:1 220:1
19641:1 27664:1 6111:1 10758:1 25770:1
22394:1 9973:1 28188:1
16711:1 9522:1 14675:1 27812:1 11814:1
16889:1 889:1 18900:1
7124:1 23253:1
28027:1 6183:1 4630:1 2127:1 8512:1 12018:1 19151:1 24499:1 7672:1 220:1 7348:1
21464:1 368:1 15819:1
5077:1 13046:1 22717:1
20982:1 20511:1 3245:1 24584:1
6705:1 2579:1 9406:1 9166:1
142:1 14399:1
15187:1 22567:1
25600:1 9268:1
17389:1 21323:1 7348:1
16088:1 11918:1
28217:1 14035:1 28707:1
16681:1 18822:1 3173:1 4008:1 27124:1
6093:1 4415:1 14399:1 10444:1
4032:1 16916:1 3720:1
16238:1 23997:1 14404:1
21783:1 21484:1 21297:1 6693:1
26165:1 16013:1 11799:1
21591:1 16802:1 4116:1 15819:1
27853:1 17270:1
2030:1 11575:1 24706:1
13887:1 10254:1 7830:1 11619:1
7079:1 23472:1
1297:1 19285:1 17584:1
1982:1 2197:1 13554:1 21613:1 220:1 17533:1
22567:1 17848:1 27550:1 10569:1 1907:1 25543:1 4446:1
26508:1 11704:1 19001:1
10505:1 24038:1 23884:1 11408:1 1002:1
14418:1 7068:1 16553:1
26963:1 21533:1 6136:1 23291:1 963:1 19729:1
1626:1 22733:1
26691:1 21402:1
9238:1 24499:1 8737:1
2530:1 14820:1 3717:1 3720:1
8356:1 20646:1 14450:1
16224:1 5458:1 11770:1 27520:1 12134:1 22206:1
19453:1 1297:1 28621:1 24499:1 16681:1 16013:1
25371:1 1626:1
20664:1 2700:1
2058:1 23100:1 22765:1 1040:1 363:1 19175:1 20404:1 24499:1 26160:1
7935:1 14684:1 15418:1
20664:1 7032:1 10410:1 16802:1
6471:1 3814:1 14035:1 1369:1
24126:1 13921:1
1626:1 22733:1
16879:1 12390:1 20242:1
26319:1 5502:1 6891:1 25945:1
8378:1 14351:1
26580:1 8639:1 12404:1
8564:1 5928:1 2214:1 11619:1 6396:1
10444:1 23297:1 26210:1
6162:1 1541:1 8229:1 13744:1 9238:1 837:1 24499:1 1370:1 12986:1 8737:1
20579:1 16864:1 9238:1 24499:1 8737:1 14016:1
24038:1 7680:1 21315:1 1002:1
9661:1 6136:1 23291:1 14720:1 14602:1 2541:1 12096:1 24267:1
5553:1 23705:1 6813:1 7853:1
15802:1 16435:1
8624:1 17730:1 898:1
4216:1 3447:1
9238:1 24499:1 8737:1
25339:1 12404:1
13613:1 8356:1 25300:1 7748:1
26319:1 2672:1
16374:1 16485:1 21789:1
16183:1 18365:1 5278:1
7009:1 14872:1 11619:1 12807:1 25284:1 14931:1 18402:1 21482:1 7348:1
912:1 10444:1 6904:1
14351:1 19994:1 9418:1
16221:1 3525:1 7348:1
18153:1 25955:1 22791:1 22609:1
27521:1 18714:1 7169:1 3569:1 24499:1 23291:1 13887:1 2642:1
5077:1 25607:1 27511:1 28673:1
5798:1 12560:1 6968:1
26945:1 8169:1 10105:1
18552:1 14548:1 3720:1
25902:1 2121:1 14064:1 24904:1 27441:1 27975:1 11154:1 1118:1
21384:1 15902:1
9238:1 24499:1 8737:1
25916:1 15297:1 490:1 16015:1
2912:1 24681:1
9238:1 24499:1 8737:1
11951:1 1287:1 22567:1 11619:1 5782:1
1216:1 11619:1 18505:1 847:1
6462:1 22662:1 18569:1
16168:1 2127:1 1623:1
18564:1 13588:1 26951:1
251:1 20699:1 26661:1 3191:1
9238:1 24499:1 8737:1
22903:1 5465:1 3191:1
12629:1 10128:1
13130:1 9532:1 12471:1 7348:1
7792:1 14450:1 21300:1 8356:1 7107:1 20605:1 15721:1
22298:1 19850:1 19144:1
23777:1 20281:1 24499:1 3599:1
21427:1 27476:1 22450:1 1118:1
5678:1 12869:1 28359:1
23277:1 8120:1 13888:1
6198:1 3350:1 14712:1 634:1 6093:1 14938:1 5510:1
17851:1 10444:1
14931:1 21755:1 22567:1 16013:1 22604:1
13223:1 7335:1 24135:1
7348:1 12390:1 13388:1 24499:1 14502:1 23841:1
20560:1 24499:1 8625:1
15237:1 565:1
13926:1 11558:1 1297:1 9225:1
9194:1 8639:1 14153:1
11395:1 19126:1
2525:1 1723:1 3720:1
14068:1 23013:1 21144:1
6674:1 16350:1
5928:1 16802:1 20242:1
15297:1 26923:1 2214:1 28375:1 2075:1 15836:1
9238:1 24499:1 8737:1
3157:1 24499:1 23657:1 25010:1
18561:1 21613:1 26478:1
15742:1 27194:1 16802:1 2880:1
26446:1 7130:1 19440:1 4939:1
5247:1 3589:1
9850:1 3917:1 27660:1
4307:1 10036:1 9406:1
17862:1 2401:1
12912:1 1257:1
27468:1 12726:1 21482:1 11538:1 20913:1 22418:1
5018:1 6552:1
9361:1 17851:1
6198:1 23301:1 11922:1 13207:1 24791:1 2121:1
27975:1 13887:1
11171:1 6934:1
13887:1 21802:1 19450:1 2739:1 23685:1
7824:1 24499:1 21499:1 9595:1
18876:1 17947:1 25761:1 15465:1
7087:1 2024:1 7348:1
28011:1 524:1
12637:1 507:1 4939:1
9850:1 5250:1 24863:1
20820:1 12158:1
15352:1 15140:1 14404:1 25787:1
13367:1 10250:1 16168:1 11619:1
19607:1 16325:1 24499:1
18608:1 13046:1 3572:1 10453:1 27733:1 220:1 11799:1
21482:1 3790:1
14903:1 3252:1 10355:1
16528:1 14712:1
24465:1 3569:1 26210:1 13452:1 4689:1
22071:1 15116:1
19441:1 24499:1 11619:1
12471:1 8685:1 21312:1 11538:1 27056:1 24499:1 6891:1
10476:1 21499:1 13848:1 9147:1 16864:1
19072:1 9595:1 715:1 16681:1
9238:1 24499:1 8737:1
11515:1 4939:1 9238:1 11288:1 24499:1 8737:1
12462:1 1373:1 1398:1 7029:1 3720:1
9238:1 24499:1 12478:1
27727:1 24499:1 12193:1 14938:1
7102:1 28718:1 13887:1 21993:1
20486:1 10569:1
18561:1 6876:1 24499:1 7143:1
25010:1 1666:1 11619:1
10444:1 22931:2 8357:1
9446:1 1901:1 16481:1
9928:1 27764:1 13887:1
9238:1 24499:1 8737:1
12279:1 12002:1
307:1 19345:1
23037:1 5062:1
6371:1 12449:1 8356:1 14450:1
16006:1 24499:1 9379:1
18163:1 6501:1 129:1
17428:1 3740:1 10734:1 11619:1 4227:1
1986:1 18151:1 12471:1 21055:1 12429:1 12478:1 9238:1 24499:1 23659:1
6371:1 15554:1
26748:1 13887:1
12471:1 10944:1 20194:1 1749:1 26748:1 7412:1 25451:1 416:1 441:1 220:1
2877:1 11738:1 9011:1
18114:1 111:1 20890:1
2525:1 28047:1 21491:1
24499:1 2899:1 25626:1 17113:1 10761:1
2030:1 12212:1 13887:1
28359:1 4195:1
26446:1 19668:1
20958:1 251:1
18306:1 4369:1 7669:1 6396:1
19850:1 6705:1 16013:1 25945:1
12557:1 10623:1 16013:1
8002:1 27604:1 13887:1
26165:1 20370:1 19653:1
3350:1 8529:1 9460:1 19713:1 27535:1 18220:1 13497:1 220:1
19824:1 7424:1 7412:1 891:1 26210:1
24806:1 19770:1 19594:1
27943:1 22942:1
3535:1 21999:1 6571:1 3350:1
21297:1 26845:1 1287:1
1844:1 55:1 5870:1
22920:1 23943:1
3027:1 7793:1 26806:1 16090:1 3385:1
9238:1 24499:1 8737:1
20958:1 25010:1 24769:1
2912:1 23253:1
2331:1 23253:1
9238:1 24499:1 8737:1
2075:1 12471:1 12362:1
13591:1 26429:1
56:1 12471:1 7728:1 7067:1 21964:1 27225:1 1784:1
13576:1 3471:1
20518:1 28009:1 13494:1
10884:1 1040:1 18867:1
18876:1 14926:1
9513:1 5769:1
10854:1 17072:1 17435:1 10444:1 21890:1
2769:1 10001:1 17121:1 10444:2
3168:1 28124:1 16168:1 23008:1
2180:1 8162:1 26172:1 6855:1 21939:1
21464:1 368:1 15819:1
27120:1 17926:1 21147:1 20194:1 23778:1
26165:1 6371:1 24488:1
6705:1 1901:1
26446:1 5449:1 19668:1 2062:1
2547:1 22895:1 26363:1
20835:1 28359:1
27550:1 28716:1
16677:1 24499:1 7574:1 24722:1 2772:1
686:1 22609:1 1616:1 7728:1 18398:1 22791:1 14854:1
22277:1 563:1 27521:1
27352:1 10444:1 5391:1 13887:1 16528:1
6272:1 20486:1
968:1 22567:1 20393:1
9336:1 16554:1
12443:1 6396:1
26319:1 18843:1 8741:1
21857:1 17876:1 9147:1
7040:1 19256:1 17172:1
25871:1 10374:1 16916:1
26827:1 1161:1 15802:2
11541:1 7032:1 13300:1
21879:1 20976:1 15802:1 20212:1
23870:1 3103:1 6396:1
19924:1 673:1 12639:1 7110:1 1538:1 11101:1
21368:1 23869:1 19548:1
20162:1 10614:1
17756:1 22114:1 18064:1
15371:1 3411:1 3245:1
16339:1 12443:1 22430:1
9238:1 24499:1 8737:1
636:1 500:1 18968:1
20404:1 25890:1 23176:1 16577:1
16889:1 11187:1 15089:1
16339:1 8569:1
18191:1 15433:1 23966:1 13863:1
413:1 20129:1 23360:1
413:1 26644:1 12730:1 6309:1 17769:1
10973:1 6249:1 9055:1 26002:1
8916:1 25642:1 12471:1 16530:1
9485:1 1440:1 2954:1
11704:1 1313:1
22275:1 8356:1 15920:1 11398:1 14450:1
20342:1 25094:1 1297:1 22885:1
18674:1 26328:1 10849:1 220:1 7348:1
3796:1 12044:1
14931:1 1861:1 22567:1 692:1
15622:1 19126:1 162:1
788:1 24056:1 27764:1
5378:1 22067:1
10019:1 7539:1
892:1 1407:1 4033:1 9197:1 25890:1
21591:1 6186:1 10831:1 16236:1 4116:1
3569:1 16711:1
7935:1 12471:2 6000:1 16120:1 3200:1 10615:1 5134:1 11619:1
23029:1 6054:1 882:1
1723:1 9313:1 5024:1
2015:1 1166:1 17947:1
10875:1 26690:1
9238:1 24499:1 8737:1
27272:1 1287:1
7717:1 28007:1
4149:1 12134:1 19126:1
22534:1 18053:1 15730:1
10444:1 23239:1 13588:1
17389:1 22567:1 23406:1
4914:1 9767:1
17464:1 23182:1 14431:1 19416:1 11612:1
26319:1 357:1 18550:1
12471:1 5867:1 237:1 23705:1 26518:1 4649:1
2075:1 18351:1 28359:1 11619:1
2555:1 21323:1
27207:1 12471:1 1297:1 813:1 19440:1 22567:1 2244:1 7348:1
13367:1 16864:1 1287:1
21277:1 9926:1 16802:1 25890:1 26189:1
23092:1 18561:1 23253:1
11529:1 11619:1 7348:1
1442:1 12390:1 2739:1 7400:1
12504:1 28673:1 26518:1 3589:1 14351:1
21033:1 21591:1
15297:1 24117:1 7585:1 28487:1 28188:1 13926:1 13887:2 14281:1
5467:1 2370:1
7727:1 22567:1 3880:1
13739:1 12471:1 7766:1 5066:1
5918:1 877:1 13482:1 23703:1
2673:1 22656:1 26516:1
28525:1 15101:1 4238:1
1659:1 18721:1 1297:1 22726:1
2197:1 1403:1
24499:1 3092:1 17842:1
8528:1 7951:1
9238:1 24499:1 8737:1
26763:1 24509:1
14068:1 5603:1 12815:1
16100:1 6396:1
28586:1 20803:1 13693:1 5679:1 25010:1 14938:1
15174:1 14712:1 8875:1
12726:1 24499:1 18017:1 21411:1 26165:1 17241:1 16013:1
19850:1 15612:1 26242:1
14213:1 10444:1 16778:1
1626:1 22733:1
14527:1 8822:1
18205:1 6934:1
14303:1 5671:1 24499:1 11384:1
25615:1 16248:1
5449:1 7032:1 5970:1 563:1
16485:1 21789:1
2446:1 5448:1 24015:1 22609:1
14339:1 21683:1
20518:1 18674:1
28586:1 7649:1 13922:1 18641:1 19377:1
18063:1 9460:1 2494:1 19713:1 3720:1 16681:1 2062:1 26579:1
21613:1 9973:1 19126:1
23939:1 56:1 6668:1
25902:1 6008:1 1297:1 13501:1
12471:1 11775:1
24048:1 12726:1 16015:1
6371:1 15997:1
18907:1 28359:1 13857:1
20529:1 1401:1 13571:1
8402:1 27077:1 24631:1 20605:1 24249:1
28454:1 10425:1
16324:1 24499:1 1908:1 7348:1
17975:1 12557:1 13396:1
14418:1 26457:1
26319:1 21356:1
3191:1 16171:1
12471:1 19225:1 25010:1
7639:1 10708:1 21790:1
8852:1 18394:1
3027:1 28676:1 1538:1 8568:1 11718:1
8356:1 14450:1 13887:1 19126:1
4820:1 16802:1
22131:1 23884:1 24572:1 9461:1 27521:1 25890:1 27109:1 13004:1
3569:1 1723:1
21464:1 16802:1 15819:1
9364:1 24407:1 18306:1 21525:1 24996:1 2912:1
5703:1 19668:1 264:1
21002:1 1601:1 21356:1
21390:1 10105:1 8555:1 11619:1
4441:1 18674:1 28522:1
17454:1 13632:1 10001:1 24499:1
12068:1 20212:1
13300:1 6396:1
21323:1 4715:1
4295:1 414:1
16827:1 8197:1 3007:1 27927:1
16221:1 486:1
1541:1 6496:1
9238:1 24499:2 19356:1 21613:1 8737:1
10569:1 13207:1
9238:1 24499:1 8737:1
15366:1 18384:1 18049:1 28028:1
9532:1 22567:1 5092:1
6008:1 26688:1 26183:1 25757:1
996:1 12471:1 25834:1 5383:1 10036:1
22567:1 17842:1 19440:1 1040:1
9238:1 24499:1 12478:1
25371:1 10534:1
2174:1 12471:2 17317:2 11619:1 4163:1
20820:1 21805:1 25788:1
20958:1 15498:1
2579:1 634:1 10070:1 15031:1 5378:1 27272:1
13934:1 9532:1 11003:1 26399:1
26568:1 3173:1 2174:1 14099:1 25838:1 25945:1 17517:1
12560:1 21482:1
11408:1 11205:1
9238:1 24499:1 8737:1
11575:1 14712:1 24790:1
12811:1 8292:1
10444:1 18129:1
20707:1 19835:1 4444:1 27135:1
11662:1 28487:1 20207:1 11619:1
18278:1 10410:1 18569:1
21613:1 401:1 9973:1
9238:1 24499:1 8737:1
10036:1 1538:1
10444:1 5641:1 24499:1 12635:1
15602:1 25010:1 8995:1
22050:1 26442:1
20690:1 21932:1
26328:1 19771:1
27631:1 5115:1 36:1 17317:1 11619:1 16088:1 1688:1 13926:1
20518:1 27853:1 5115:1 19341:1
25442:1 17739:1
9661:1 3092:1 18513:1 2541:1 16200:1 24499:1 21390:1 24465:1
18876:1 3457:1 16484:1
12683:1 16294:1
26963:1 24499:1 12471:1 4102:1 589:1 19838:1 24046:1 55:1 220:1
1723:1 3864:1 813:1
25010:1 2223:1 26447:1
20518:1 15226:1
24643:1 9498:1 11721:1 9898:1 15685:1
3280:1 6348:1 17073:1 18733:1
10444:1 8972:1 7669:1
9850:1 11896:1 13223:1
20490:1 12564:1 11128:1 827:1 1875:1 21613:1 9238:1 24499:2 3013:1 24129:1 8737:1
21448:1 9400:1 220:1 11520:1 23211:1
9238:1 24499:1 8737:1
27983:1 2197:1 26669:1 28454:1 10443:1
10569:1 21825:1
1134:1 6000:1 10444:1 26410:1 7546:1
21707:1 12158:1 10306:1 18477:1
25051:1 14373:1 1173:1 17975:1
1142:1 10444:1 19135:1
21274:1 12373:1 14587:1 17834:1 14720:1 24499:1 1976:1 6396:1
15669:1 27449:1
8051:1 7032:1 5970:1
13141:1 4253:1 25010:1
24499:1 10613:1 23860:1 7348:1
4681:1 23841:1
1626:1 22733:1
16864:1 25194:1 24996:1 28359:1
4415:1 25902:1 6923:1 11619:1 4163:1 8257:1
18220:1 20281:1 55:1 7348:1
19506:1 16013:1
14089:1 26623:1
9238:1 24499:1 8737:1
20272:1 22050:1 4978:1
28505:1 10260:1 6317:1
5449:1 18319:1 10036:1 10673:1
27995:1 1738:1
24038:1 22567:1 1002:1
16636:1 12471:1 9218:1 7766:1
9057:1 9371:1 3060:1
11619:1 24196:1
19415:1 23902:1
23897:1 5567:1 16681:1
13374:1 6742:1
27114:1 13396:1
11815:1 18369:1
12234:1 13137:1
19826:1 25381:1
17136:1 6741:1 6565:1
14453:1 1563:1 26568:1
22567:1 17156:1
22567:1 19440:1 1996:1
11662:1 19902:1
12148:1 26508:1 26829:1 18569:1
13934:1 9532:1 19505:1 15125:1 16802:1
12148:1 2299:1 20393:1
9119:1 162:1
27591:1 14303:1 27778:1 21314:1 1002:1 24038:1 20440:1
13490:1 26363:1
8197:1 19416:1 560:1 4538:1 1565:1 20012:1 5653:1 220:1 19276:1
343:1 9595:1 2218:1
20518:1 18674:1
13554:1 25010:1 8449:1 10444:1 18064:1
20162:1 22567:1 6136:1 16168:1 21252:1 220:1 26889:1
12177:1 9461:1
24621:1 10164:1
26734:1 28185:1
26748:1 12954:1 16681:1 26273:1 6008:1
25600:1 2015:1 13669:1
26568:1 12433:1
21610:1 1733:1 22258:1 27670:1 11566:1 21493:1 24499:1 11949:1 220:1 23818:1
21358:1 10600:1
23092:1 18561:1 23253:1
8109:1 17290:1 5567:1 5465:1
5928:1 20242:1 12002:1
4913:1 12212:1 8281:1
27380:1 1619:1 28359:1 5835:1
9238:1 24499:1 8737:1
9532:1 14976:1
19318:1 4481:1
7717:1 10036:1 5383:1
55:1 7956:1
12849:1 14931:1 13828:1
27620:1 14402:1
10444:1 25397:1 24015:1 18083:1
8426:1 4203:1 11022:1
4584:1 14840:1
8512:1 10625:1 12018:1 21300:1 16042:1 7294:1 220:1 13883:1
9857:1 14684:1 24349:1
10815:1 24499:1 23902:1 12002:1
1297:1 7348:1
4946:1 25010:1 14306:1
10344:1 11619:1 19192:1
17947:1 297:1
1216:1 1779:1 14896:1
10684:1 11997:1
6371:1 23860:1
23008:1 19292:1
24499:1 3836:1 14144:1
16374:1 27977:1 23182:1 297:1
12238:1 398:1 14064:1
23619:1 8933:1 10444:1 18457:1 19222:1
12875:1 22467:1 23902:1
8162:1 15559:1 3864:1 220:1 11619:1
9238:1 24499:1 8737:1
23374:1 10536:1 28417:1 1623:1 11799:1
11367:1 26210:1
23785:1 11186:1 17441:1
8748:1 28188:1
14318:1 1297:1
5622:1 12471:1 25236:1 14543:1
11906:1 10845:1
11215:1 11619:1 12651:1
10868:1 3691:1
3806:1 20904:1
6565:1 13229:1 6538:1
5247:1 3589:1
12471:1 4238:1 21264:1 7348:1
9238:1 24499:1 8737:1
6674:1 10444:1
25387:1 14771:1 8462:1 9769:1
13067:1 11619:1 12807:1 21758:1 9532:1 23418:1 220:1
3880:1 23013:1 2221:1
7910:1 12006:1
17172:1 5970:1 11619:1
28592:1 13908:1
26568:1 25010:1
14930:1 3191:1 25284:1 10444:1 9908:1
1417:1 16013:1 813:1 3807:1 16842:1 220:1 5090:1
16939:1 16015:1 847:1
12134:1 5383:1
7068:1 7030:1
26324:1 16557:1 26261:1 1587:1 24180:1
1507:1 21314:1 24499:1
996:1 6371:1
10833:1 15001:1
22041:1 24348:1 11501:1 15328:1 16681:1 6915:1 21060:1
9043:1 27660:1
6999:1 1867:1 22368:1
27468:1 5078:1 18204:1 3525:1 15506:1 16155:1 23360:1
2197:1 26379:1 14937:1
23972:1 28707:1 19450:1
14138:1 17315:1 13887:1
24142:1 15144:1 13887:1
28592:1 21541:1 10287:1
5449:1 20593:1 15802:1
12471:1 21613:1 1114:1 8302:1 22206:1 24499:1 13828:1
22734:1 25306:1 21300:1 7951:1 15011:1
26963:1 7496:1 14138:1 24066:1 13186:1 25267:1 16553:1
16528:1 4712:1 27352:1 13887:1
17756:1 22114:1
15011:1 16418:1
1487:1 19412:1 24615:1 25741:1 4184:1 9238:1 24499:1 10873:1 8737:1
14399:1 10444:1 4444:1
2030:1 25336:1 5635:1 28181:1
9238:1 24499:1 8737:1
9238:1 24499:1 8737:1
8162:1 1522:1 10444:1 6968:1 13588:1
9238:1 24499:1 8737:1
9517:1 17290:1 24499:1 2214:1 2972:1
12819:1 26956:1
22909:1 6924:1
21964:1 768:1 2370:1
5528:1 12932:1 24722:1 9238:1 24499:1 12471:1 17034:1 8737:1
26994:1 9406:1
25059:1 25452:1
17848:1 19751:1 11538:1 10271:1 24499:1 21881:1
24988:1 7664:1 23902:1
5127:1 15868:1 24733:1 1287:1
23253:1 8770:1
24838:1 14318:1 11619:1 22931:1 18585:1 19959:1 13926:1 5176:1
21613:1 14648:1 3007:1
2002:1 19326:1
1824:1 24499:1 20465:1 23962:1
22503:1 18907:1 24198:1 19924:1 26382:1 813:1 16681:1
20874:1 25010:1 220:1 10199:1
4415:1 27135:1 12750:1 1040:1
27061:1 15540:1
6705:1 4932:1 9406:1
15729:1 20736:1
24031:1 17172:1
25105:1 22885:1 24499:1 15920:1 14302:1
9882:1 23242:1 8581:1
24773:1 3503:1 1002:1
3280:1 24838:1 6309:1 1040:1 27521:1
25387:1 27732:1
17947:1 11406:1 15031:1
15425:1 25543:1
618:1 18843:1
5721:1 19850:1 4419:1
19913:1 19282:1
9238:1 24499:1 8737:1
23012:1 17644:1 19225:1 2232:1 10444:1 4779:1 12471:1 7412:1 10838:1 25802:1 25600:1 220:1
4820:1 25059:1
9238:1 24499:1 8737:1
24769:1 23685:1
19682:1 19092:1 6740:1
13055:1 25670:1 3437:1 11998:1 20019:1 17884:1 17666:1 220:1 1733:1
6396:1 4754:1
12726:1 8215:1 21671:1 15039:1 26850:1
9238:1 24499:1 12478:1
21653:1 7876:1
5551:1 1297:1 12279:1
105:1 26687:1 19057:1 26757:1 28229:1 9271:1 11637:1
11662:1 7348:1
1861:1 12134:1
22869:1 5378:1 25335:1
413:1 494:1 26958:1
14399:1 8723:1
1752:1 23957:1
11724:1 15011:1
21805:1 1040:1 21837:1
11445:1 9627:1 18636:1 7213:1 15564:1 24499:1 23418:1 4745:1 12783:1
1626:1 22733:1
20904:1 10036:1 16481:1 6494:1
12286:1 9595:1 24499:1 16155:1
26446:1 8770:1
21613:1 28707:1 10105:1
1812:1 22717:1
8447:1 6705:1 21482:1
21591:1 12279:1 12651:1 12484:1 24499:1 6396:1
13733:1 13908:1
16445:1 19997:1 3549:1
4939:1 12002:1
13388:1 24499:1 2603:1 26892:1 15364:1
23676:1 11619:1 19771:1
14221:1 26698:1
9411:1 19920:1 8020:1 4444:1 4944:1
28705:1 2372:1
9238:1 24499:1 8737:1
16100:1 1601:1 3833:1 2214:1 9371:1
9850:1 11896:1 13639:1
17876:1 1771:1 11836:1
9532:1 16802:1 5092:1
4415:1 3105:1 11973:1
13744:1 2475:1 14689:1 6396:1 2159:1 22895:1 15923:1 24499:1 10856:1 220:1 17449:1
3401:1 16168:1 27660:1
1216:1 11619:1 18505:1 847:1
17150:1 9532:1 13171:1 11395:1
23156:1 14548:1 10443:1 3720:1
21464:1 368:1 15819:1
2705:1 16528:1 24423:1 26518:1 2121:1
9238:1 24499:1 8737:1
20699:1 26482:1 26136:1
11406:1 15031:1
11619:1 7348:1
19747:1 15069:1 26136:1 19038:1 9533:1
6004:1 10279:1
26945:1 4203:1
2579:1 10444:1 5092:1
1658:1 15926:1 19045:1
18374:1 1369:1
18561:1 5567:1 12471:1
26945:1 15352:1 21188:1
26446:1 5449:1 19668:1 2062:1
4415:1 18095:1 24329:1 1040:1 27135:1
63:1 1297:1 8272:1 3484:1 1587:1
24046:1 7426:1
7574:1 24247:1 22737:1 4644:1 12639:1 24499:1
21805:1 18381:1 17615:1
16374:1 11847:1 27977:1 22567:1 18569:1
24773:1 8432:1 2649:1 27463:1
25674:1 21635:1
5752:1 25010:1
4149:1 25536:1 16802:1 17730:1 7348:1
18476:1 19668:1 2062:1
1225:1 11408:1 20706:1 27077:1
17389:1 12471:1 16802:1 20027:1 15226:1 26205:1 26136:1
9238:1 24499:1 8737:1
2215:1 2197:1 2062:1 19001:1
4875:1 15997:1 19222:1 7348:1
1396:1 19668:1
10444:1 3990:1 8268:1 21075:1
18243:1 28327:1
3245:1 3411:1 7820:1
17757:1 11408:1
14450:1 16681:1 26417:1 27520:1
14764:1 24839:1
14956:1 9238:1 25600:1 24499:1 16346:1 5970:1 8737:1
16646:1 23938:1
9238:1 24499:1 8737:1
9313:1 5024:1 4681:1 19884:1
3822:1 11077:1
8002:1 15730:1
19040:1 18383:1 5449:1
11529:1 7348:1
20722:1 3572:1 23242:1
9238:1 24499:1 8737:1
16155:1 12645:1
1626:1 22733:1
219:1 22726:1
10444:1 23360:1 14896:1
2484:1 6326:1 14938:1
21274:1 2197:1 10444:1 22895:1 12471:1 16015:1
11721:1 12471:1 9898:1 27972:1 26473:1
7168:1 22883:1
25782:1 13046:1 7728:1
24105:1 28505:1 8971:1
8059:1 6627:1
24996:1 9532:1 8804:1
21429:1 4643:1 8510:1
27515:1 15280:1 12471:1 10014:1 14033:1 13877:2 2074:1
9238:1 24499:1 8737:1
10839:1 26189:1
17389:1 3699:1 10849:1 18198:1 20084:1
10906:1 1273:1 7217:1
8197:1 24499:1 17829:1
17734:1 15373:1
3173:1 22312:1
13571:1 27194:1 20136:1
1283:1 3720:1
10937:1 8193:1 22050:1
26861:1 1723:1
10614:1 21613:1 24499:1 10036:1 9324:1
10444:1 5954:1 3437:1
23586:1 54:1
9238:1 24499:1 8737:1
16339:1 771:1 1369:1 12443:1 4369:1 16681:1
1626:1 22733:1
28281:1 15356:1 686:1 28158:1 7680:1 1587:1
23277:1 21436:1 27839:1 16802:1 21949:1
19974:1 23291:1 3191:1
24681:1 15799:1
26319:1 20982:1 20130:1 1184:1 15100:1
3349:1 24731:1
3125:1 13046:1 28716:1
15177:1 18876:1 17687:1 4859:1 22206:1
16500:1 2579:1
24499:1 10613:1 23860:1 7348:1
13833:1 27975:1 8733:1 24564:1 3991:1
28691:1 1297:1 7348:1
3339:1 6348:1
26786:1 999:1 3033:1
4913:1 12212:1 8281:1
1907:1 20874:1 5580:1 17684:1 11619:1
9238:1 24499:1 8737:1
16440:1 24769:1 5922:1
5237:1 12593:1
993:1 12116:1 25945:1
1659:1 7939:1 28156:1
3249:1 4415:1 10997:1 11471:1 13632:1 27194:1 220:1 20476:1
6371:1 9639:1 7412:1
10944:1 2121:1 1749:1 3681:1 10444:1 2062:1 220:1 11022:1
17548:1 17241:1 9081:1
18306:1 8162:1 6368:1 2066:1
14020:1 20238:1 25248:1 13887:1
14418:1 6792:1 20194:1 1040:1 24756:1 14974:1
10444:1 16802:1 19277:1
4932:1 9406:1 3147:1
22379:1 7348:1 4933:1 12471:1 21799:1
26963:1 27:1 2424:1 16747:1 21125:1 22757:1
3569:1 8972:1 19751:1
14351:1 19276:1
21805:1 1287:1 847:1
9238:1 24499:1 8737:1
17999:1 8903:1 27272:1
19518:1 15062:1 17730:1 24499:1 21539:1 22617:1 13501:1
1396:1 3020:1 4142:1 1168:1
6272:1 17264:1
961:1 15622:1
12259:1 20269:1 2029:1 14896:1
5693:1 23360:1 2030:1
21076:1 26611:1
3092:1 9313:1 5024:1
11939:1 15297:1 771:1 27615:1 27992:1 23342:1 22604:1 25256:1 2218:1
13167:1 26708:1 672:1 17389:1 7264:1 13896:1 8645:1 5510:1 16505:1 19732:1 28479:1
14343:1 10797:1 1258:1 23860:1
10860:1 19594:1
3361:1 24499:1 27272:1
23584:1 21443:1 5241:1 1904:1 25827:1 10469:1 26626:1 220:1 12254:1
22273:1 16294:1 11395:1 847:1 16864:1 24499:1 6396:1
28558:1 2209:1
13887:1 25216:1 7469:1 7903:1 28009:1 25256:1
23901:1 8356:1 28634:1 14450:1
6818:1 2738:1 23527:1
9532:1 11367:1 17089:1
24839:1 16681:1 23316:1 21323:1 23221:1
13130:1 14306:1 16681:1 7348:1
14946:1 26458:1 25673:1
4307:1 20728:1 16951:1 28577:1 28405:1
4315:1 12332:1 6487:1 1225:1 10444:1 10826:1
18255:1 26085:1
21212:1 14958:1 12471:3 6861:1 23219:1
4820:1 993:1
2522:1 4119:1 12557:1 12471:1 3991:1
14438:1 18306:1 9229:1 23196:1 22206:1
4307:1 15802:1
9238:1 24499:1 12478:1
8197:1 25194:1 618:1
1297:1 24509:1 24821:1 24459:1
26945:1 8169:1 10105:1
20819:1 15802:1 10444:1 22200:1 24731:1
13367:1 21359:1 22791:1 22609:1
10950:1 4415:1
2137:1 13613:1 25300:1 6008:1
21054:1 27729:1 12471:1 17011:1 10014:1 26518:1 17269:1 13887:1 1103:1
5840:1 24499:1 27561:1 13887:1 7348:1
9238:1 24499:1 8737:1
26604:1 24301:3 20835:1
26963:1 19518:1 4507:1 363:1 11408:1 7680:1 22234:1
9238:1 24499:1 8737:1
8356:1 7107:1 23051:1 14450:1
1538:1 26447:1
2215:1 21613:1
11929:1 15069:1
8411:1 56:1 1298:1 10444:1 4967:1
27001:1 2066:1 769:1 26644:1
2695:1 15089:1
7846:1 22484:1
17975:1 16200:1 7876:1
9238:1 24499:1 8737:1
8447:1 6705:1 21482:1
15877:1 6241:1 13571:1
892:1 1992:1 2066:1 4643:1 16060:1
3990:1 7348:1
2197:1 11731:1
10378:1 8215:1 156:1
28707:1 10105:1
20162:1 21027:1 23078:1 24499:1 17271:1
25246:1 19687:1 2128:1 14359:1 4599:1
23681:1 877:1 3720:1
23619:1 5551:1
12471:1 9218:1 11027:1 12097:1
21214:1 19548:1
1825:1 27476:1 19668:1 26685:1 4750:1 16681:1 17164:1 22604:1
397:1 13508:1 11619:1
8302:1 5449:1 14451:1 7714:1
28318:1 12526:1 24499:1 14515:1
6159:1 24499:1 12629:1
219:1 9406:1 2473:1 24582:1
21356:1 1040:1
8989:1 23013:1 4932:1
14809:1 25865:1 8975:1
17740:1 12259:1
21517:1 18167:1 19163:1
9452:1 21991:1
21484:1 9595:1 13229:1 12471:1
21033:1 21591:1
9238:1 24499:1 8737:1
3188:1 10036:1 10444:1 20207:1 13887:1
5887:1 771:1 11619:1 5498:1 20060:1 22567:1 220:1
23366:1 3191:1
15187:1 12371:1 25256:1 28761:1
18822:1 19057:1 27711:1 3716:1 12954:1
24499:1 24791:1 16013:1 28665:1 7348:1 5498:1 20060:1 4142:1 220:1 6968:1
24784:1 1840:1 258:1 11895:1 12783:1 11022:1
15356:1 8203:1 16799:1 28359:1
4820:1 16802:1
8197:1 26623:1
20976:1 12471:1 16553:1 22726:1
5368:1 9898:1 11619:1 22329:1
27265:1 8804:1 27812:1
912:1 17947:1
1982:1 10534:1
19169:1 17834:1 3350:1 5140:1 5431:1 6008:1 26518:1 95:1 27583:1
9238:1 24499:1 8737:1
21591:1 4116:1 15819:1
1297:1 7348:1
2197:1 4195:1
2664:1 813:1
28318:1 5678:1 12987:1 16712:1 3420:1 27377:1 24499:1 6309:1
7893:1 13300:1 563:1
25010:1 8326:1 13887:1
5337:1 20243:1 9827:1 22895:1 762:1 1587:1 28454:1
22300:1 5024:1 9313:1
20773:1 1587:1 4711:1
11785:1 4643:1 8510:1
2906:1 6947:1 10892:1
23418:1 8568:1
14363:1 26716:1
14343:1 24500:1 3189:1 15836:1
25035:1 26911:1
26319:1 28104:1 20627:1 16802:1 20109:1
1659:1 24499:1 11619:1
13367:1 3361:1 1587:1 28185:1
16200:1 1723:1
24046:1 690:1
6379:1 9010:1
20664:1 10410:1 20564:1
20377:1 9821:1 17073:1 20413:1 9011:1
12417:1 9926:1 10444:1
3868:1 24922:1 11619:1
9238:1 24499:1 8737:1
6360:1 21037:1 8292:1
1920:1 10849:1 1297:1 3991:1 1907:1 5970:1 27521:1
4307:1 15802:1
14343:1 9594:1 21613:1 23360:1 11104:1
18556:1 23733:1 26273:1 6317:1
7004:1 13946:1
20634:1 13639:1
13300:1 16553:1
15697:1 13613:1 25300:1 13171:1
19850:1 15006:1 22746:1 10444:1 20212:1
18068:1 21496:1
5638:1 12449:1
10495:1 24624:1 8937:1 20603:1 6396:1 7348:1
3569:1 16554:1 17425:1
788:1 10566:1
16429:1 10444:1 13137:1
16802:1 11395:1
17848:1 12033:1 28359:1 22895:1 28624:1 24459:1
16015:1 3720:1
5602:1 3991:1 25664:1
4944:1 12784:1
19641:1 20370:1
2226:1 26826:1 21168:1 4709:1
25387:1 20108:1 26644:1 15089:1
21319:1 8461:1
17315:1 18467:1 17520:1 8783:1 21261:1 24247:1 14089:1
24499:1 6361:1 5082:1
28434:1 11507:1 21991:1
3575:1 24499:2 23977:1 11619:1 15836:2
22161:1 18865:1 7496:1 12471:1 560:1 21983:1 11767:1 19143:1
20518:1 18674:1 19126:1
21613:1 18608:1 25798:1 25219:1 9238:1 24499:1 7820:1 8737:1
14418:1 968:1 12471:1 7068:1
19518:1 18017:1 4584:1 2679:1 6494:1 1723:1
24499:1 4810:1 21075:1 17730:1 7348:1
722:1 16879:1 898:1
18628:1 3572:1
23939:1 19904:1 24499:1 4932:1 12443:1
17064:1 24499:1 13046:1 26210:1
1330:1 3758:1 17730:1 3742:1 17697:1 7348:1
11939:1 22791:1 3204:1 22609:1
10156:1 1040:1 25827:1 11229:1 2816:1 8169:1 220:1 12254:1
4944:1 3092:1
18569:1 24499:1 6396:1 20044:1
10444:1 7412:1 18477:1
17975:1 1297:1 792:1 11619:1 5449:1 13639:1 8804:1 20293:1 17171:1
3339:1 12557:1 16013:1
17389:1 22567:1 23406:1
1907:1 8804:1 10934:1 3991:1 25664:1
16339:1 21323:1 18053:1
8878:1 19285:1 7348:1
26508:1 26273:1 20605:1
6093:1 5928:1 26801:1 18244:1
26963:1 11230:1 28359:1 80:1 11538:1 24759:1
14221:1 18351:1 25909:1 15730:1
24113:1 6567:1 16175:1 10444:1 23360:1
21939:1 3181:1 18569:1
5846:1 16554:1 26893:1
11408:1 13381:1
10888:1 15507:1 6478:1
22795:1 12471:1 24499:1 27975:1
21980:1 19410:1
21701:1 10156:1 20699:1
5635:1 12557:1 15622:1
2197:1 28593:1 3103:1
27521:1 2197:1 6923:1 22418:1
28621:1 5024:1 1297:1 9939:1 18756:1 28643:1 9313:1 19440:1
18243:1 28327:1
24499:1 16168:1 2062:1 26958:1 25945:1
24046:1 690:1
5341:1 1287:1 1040:1 11619:1 10469:1
2066:1 25306:1 26963:1 26999:1 870:1 14961:1
1236:1 15140:1 23972:1 11467:1 16553:1 25267:1
25411:1 21254:1 3484:1 14064:1 15920:1 8356:1
1699:1 16391:1
27946:1 16013:1 8235:1
1626:1 22733:1
10600:1 22656:1 11815:1 26516:1
9238:1 24499:1 8737:1
25256:1 33:1 24307:1 3720:1
25010:1 1908:1 12851:1 22975:1 2579:1 17702:1
18204:1 6136:1 23291:1
9238:1 24499:1 8737:1
10569:1 8179:1
20281:1 3599:1
19659:1 8292:1
26085:1 3601:1 1297:1 11384:1 28168:1
25094:1 11408:1
27605:1 21614:1 4266:1
9238:1 24499:1 8737:1
14493:1 11785:1 4643:1
7132:1 10036:1 16481:1
2015:1 24499:1 10444:1 15737:1
10569:1 22567:1 27550:1
6719:1 23013:1 6292:1 22931:1 7706:1 219:1 17876:1
27975:1 14555:1
1626:1 22733:1
25786:1 17357:1 2218:1
431:1 25324:1 55:1
2240:1 22427:1 12712:1
17687:1 26592:1 25802:1
19195:1 23566:1
13550:1 21482:1
14041:1 439:1 4119:1 9532:1 15465:1 25890:1 15554:1
19579:1 23046:1
8162:1 10444:1 16060:1
2473:1 7521:1 14654:1
996:1 19797:1 19770:1 11998:1 28081:1
10454:1 2046:1 10901:1
23769:1 10444:1 8292:1
24769:1 26892:1 12002:1
21527:1 28434:1 14712:1
22656:1 18374:1
3027:1 23863:1 14779:1 17241:1 18508:1
26239:1 18569:1
11538:1 16013:1
19579:1 23046:1
18968:1 27476:1 17562:1
24643:1 22881:1 11022:1 2401:1 25916:1 24425:1 24465:1 5187:1
12560:1 5798:1 15926:1
439:1 10343:1 647:1
13571:1 27194:1 20136:1
21274:1 24768:1 13926:1 3569:1 3841:1 16681:1 28593:1 22604:1
9238:1 24499:1 12478:1
25695:1 18168:1 23685:1 26308:1 20214:1 16681:1
23366:1 5635:1 3191:1
6269:1 15667:1 12158:1 220:1 7348:1
12471:1 10444:1 25010:1 9238:1 24499:1 18220:1 8737:1
10444:1 8983:1 10329:1 24499:1 23596:1
22527:1 5649:1 297:1
16060:1 22158:1 5438:1
24054:1 24636:1 16168:1 363:1
961:1 10444:1 13614:1
16500:1 21879:1 20736:1 16681:1 14990:1
9238:1 24499:1 8737:1
11920:1 26319:1 20982:1 11022:1 11619:1
28664:1 5465:1 17947:1
7639:1 4521:1 26119:1
1864:1 9821:1
9461:1 10600:1
7323:1 2197:1 16923:1 8591:1 16155:1 9769:1
9238:1 24499:1 8737:1
10444:1 23274:1 12471:1 28748:1
4820:1 16802:1
9238:1 24499:1 8737:1
12471:1 3484:1 24572:1 12033:1 21881:1 9909:1 25111:1
24882:1 14106:1 14435:1 3194:1
4307:1 8510:1
24839:1 11619:1 1913:1 13190:1 9756:1 4436:1
23513:1 11215:1 28359:1 11619:1 12651:1
26576:1 21078:1
21831:1 2214:1 1587:1 16013:1 13501:1
16809:1 2335:1
10672:1 11619:1 19596:1
3404:1 7142:1 9215:1 1297:1
4897:1 7348:1
17469:1 7728:1 21878:1
14092:1 24499:1 15622:1
17317:1 17209:1 4842:1 15011:1 5703:1 14938:1
1626:1 22733:1
8648:1 19104:1 18328:1 14351:1 4933:1 12471:1
3361:1 3447:1 24205:1
10036:1 16481:1 26447:1 6230:1
4854:1 19641:1 27664:1 1287:1
25312:1 2462:1 13243:1
363:1 2137:1 15920:1 2528:1 9682:1
3894:1 10444:1 24074:1
9238:1 24499:1 8737:1
26319:1 20982:1 11619:1 17655:1 9594:1
15697:1 9532:1 25010:1 24791:1 1072:1
4643:1 16060:1
17389:1 912:1
27476:1 25010:1 25928:1
23032:1 24913:1
9461:1 27109:1 5644:1
14343:1 16832:1
309:1 15926:1 939:1
17548:1 1154:1 813:1 5553:1 3827:1 27928:1 220:1
2372:1 1722:1
21820:1 16767:1 12471:2 14983:1 27086:1 15432:1 20527:1 13632:1 24499:1 24791:1 3720:1
13416:1 18243:1 5254:1 2110:1 8859:1
2174:1 15083:1 19277:1
22277:1 23349:1
996:1 6371:1
16374:1 16485:1 21789:1
154:1 9821:1
8322:1 10260:1 9418:1
3176:1 6186:1 10444:1 618:1
25194:1 24838:1 13613:1 8203:1 25300:1 22931:1 19959:1
10058:1 24142:1 27589:1 2399:1
7210:1 24499:1 22639:1
28370:1 19713:1 18581:1 27812:1
22994:1 12471:1 25744:1 17733:1
9238:1 24499:1 8737:1
18671:1 12471:1 12053:1 2121:1 5327:1 27218:1 6186:1 1253:1
28217:1 27927:1
21610:1 6186:1 2305:1 2218:1
25010:1 14777:1 15031:1
9238:1 24499:1 8737:1
9238:1 24499:1 8737:1
14984:1 23360:1
18847:1 21475:1
22124:1 5465:1
13021:1 28522:1
16802:1 23829:1
13571:1 27194:1 20136:1
25387:1 23078:1 24499:1 10831:1 8995:1
18561:1 5198:1 14689:1
11125:1 28359:1
996:1 5913:1 20178:1 9595:1 25010:1 23674:1
21274:1 4149:1 2197:1 25050:1 21392:1 1366:1
11219:1 7335:1 10105:1
25014:1 24406:1
24499:1 6023:1 6222:1 7348:1 1716:1 10444:1 14306:1
10147:1 8568:1 7462:1
15711:1 14351:1 10672:1 5010:1 3811:1
4805:1 8302:1
12134:1 55:1
7870:1 10483:1
22604:1 4142:1
21222:1 11619:1 9778:1 18811:1 14165:1 16764:1
27004:1 877:1 3720:1
27521:1 1297:1 13588:1 26189:1 16901:1 17043:1 10444:1 6202:1
19850:1 18692:1 27927:1
9238:1 24499:1 8737:1
1013:1 11752:1 18170:1
307:1 3720:1 13848:1 22726:1
2914:1 4444:1
3027:1 5975:1 22722:1 17876:1 24689:1 27391:1
4932:1 9406:1 545:1
20820:1 17310:1
16339:1 12443:1 4129:1
27035:1 28377:1 26210:1 16630:1 5603:1 24499:1
14351:1 15187:1 22567:1
25010:1 16143:1 23398:1 28176:1
8411:1 21482:1 672:1 14064:1 509:1 5673:1
26552:1 22965:1
9446:1 2579:1 26273:1
9238:1 24499:1 8737:1
26165:1 27633:1 8356:1 5460:1
28027:1 20461:1
9238:1 24499:1 8737:1
23319:1 21429:1 13067:1 26709:1
3385:1 1611:1 2214:1 6292:1 11384:1 12651:1 14099:1 1620:1 8388:1 20426:1
7846:1 7348:1 12002:1
16889:1 7815:1 2366:1
28570:1 11799:1
22001:1 25550:1
12557:1 1723:1 22050:1 27251:1
20270:1 16954:1 25850:1
16155:1 5432:1 24499:1 3827:1
6497:1 2197:1
21464:1 368:1 15819:1
21613:1 5250:1 24499:1 10566:1
25354:1 5567:1 2262:1 11408:1 220:1
9238:1 24499:1 12478:1
3191:1 28346:1 6497:1
20982:1 16128:1 23412:1 26709:1 26319:1 22876:1 16866:1 220:1
1809:1 19814:1 27128:1 6292:1 16681:1 10444:1 27521:2
5798:1 2956:1 18793:1 15884:1 12371:1
21300:1 3173:1
1840:1 5567:1 28693:1 22206:1
9238:1 24499:1 8737:1
26161:1 10024:1 11022:1 21943:1 16374:1 4080:1 220:1 6514:1
11983:1 7439:1 5278:1 19771:1 8964:1 1587:1
686:1 11239:1
17479:1 15332:1 1723:1 24499:1 9010:1
27701:1 8193:1 19939:1 12471:1 24982:1
10444:1 19954:1 28676:1 847:1
12172:1 17962:1
21300:1 1297:1 429:1 12152:1
7130:1 6396:1
10014:1 24087:1 10444:1 3720:1
1225:1 14871:1 27521:1
26568:1 25681:1
10831:1 11395:1 27054:1
19506:1 13103:1 281:1 14840:1 3191:1
19195:1 4763:1
7169:1 14587:1
9313:1 5024:1 22567:1
10444:1 8433:1 20188:1
10600:1 28359:1 14938:1 17089:1
18550:1 24499:1 1030:1 28506:1
18500:1 11799:1
25010:1 28188:1
26847:1 24015:1 22609:1
19501:1 23297:1 220:1 3944:1 8197:1 14743:1 3053:1
11327:1 877:1 3720:1
22717:1 14089:1 24390:1
18191:1 95:1 27583:1 6008:1
2555:1 10444:1 16923:1
686:1 24499:1 939:1 8906:1 20271:1 9532:1 21265:1 7625:1 2029:1
6186:1 3864:1 2430:1
3191:1 15433:1
15742:1 27194:1 1666:1 14707:1 27054:1
9238:1 24499:1 12478:1
11790:1 24499:1 4195:1 26210:1 23246:1
25105:1 24863:1 18130:1 4266:1
22384:1 18702:1 27306:1 17110:1 2847:1 24499:1 18220:1 15434:1 220:1
21613:1 3361:1 20414:1
16528:1 771:1
23552:1 12471:1 108:1 16530:1
8020:1 15740:1
993:1 21323:1 248:1 12051:1
7132:1 7439:1 7090:1
11785:1 25094:1 12471:1 1297:1 8193:1 12828:1 13887:1
12177:1 7348:1
9238:1 24499:1 8737:1
13523:1 24499:1 6361:1
9821:1 21204:1 4584:1 2808:1
24435:1 22585:1 19924:1 15297:1 24499:1 8462:1 13641:1
15347:1 14946:1 12702:1
7824:1 19135:1 18569:1
19739:1 3127:1 12033:1 24118:1 6482:1
8770:1 13908:1
9623:1 28016:1 26290:1
15260:1 3716:1 12954:1
9371:1 11619:1 22726:1
9238:1 24499:1 8737:1
20238:1 2776:1
14281:1 10550:1 6307:1
12384:1 16553:1
21274:1 18017:1 13074:1
21755:1 24663:1 3004:1
4415:1 19440:1 9939:1 3525:1
6371:1 25010:1 2630:1
9238:1 24499:1 8737:1
24769:1 8292:1
28104:1 15868:1 27077:1 5685:1 27294:1 1864:1 18968:1 8348:1 22342:1 24358:1
15260:1 26051:1 7728:1 3366:1 449:1 15011:1 6309:1 15914:1
26165:1 21805:1 1287:1
9238:1 24499:1 8737:1
8748:1 21701:1 23301:1
15959:1 4238:1 22726:1
9238:1 24499:1 8737:1
12750:1 4754:1
16154:1 10444:1
9595:1 6112:1 10249:1
2435:1 25952:1 25886:1
19323:1 10021:1 5865:1
26823:1 19359:1
18191:1 18204:1 21482:1 27230:1 19564:1
3191:1 18714:1
14253:1 15616:1 10444:1 23239:1
3228:1 25945:1
25615:1 25010:1 8292:1 6396:1
13718:1 1513:1 9639:1 12471:1 11619:1
19162:1 12471:1 25897:1 4203:1
11535:1 28525:1 11022:1 9238:1 17419:1 24499:1 12747:1 220:1 8737:1
24499:1 10613:1 12370:1 3437:1
6565:1 13229:1 6538:1
4702:1 5391:1
28487:1 17306:1 19601:1 24499:1 13887:1 5977:1
1626:1 22733:1
3191:1 5192:1 220:1 634:1 5498:1 20060:1 5378:1 984:1
5622:1 7348:1
15187:1 751:1 22567:1
9238:1 24499:1 8737:1
16842:1 4666:1
16872:1 12726:1 8215:1 11065:1
24499:1 22050:1 10260:1
14221:1 5378:1
10384:1 9595:1
23955:1 28067:1 18569:1
3470:1 24499:1 26210:1
17902:1 23182:1
11160:1 28416:1 24125:1
6371:1 4332:1 17164:1
2525:1 19904:1 24499:1 1614:1
25674:1 21635:1
26861:1 5744:1 21991:1
996:1 14430:1 968:1 26508:1
21274:1 27733:1 11619:1 18563:1 13554:1
9532:1 25010:1 1297:1 25928:1 12596:1
16528:1 12212:1 25256:1 25945:1
14527:1 8822:1
2197:1 21319:1 1207:1 18272:1
9238:1 24499:1 8737:1
20406:1 15819:1
6955:1 19501:1
10944:1 1749:1 26281:1 2197:1 15113:1 220:1 7728:1
27808:1 27733:1
3367:1 2329:1
9238:1 24499:1 8737:1
22567:1 21356:1 13150:1
18811:1 939:1 27521:1
21358:1 10036:1
28022:1 21613:1 4203:1
1752:1 17947:1
14343:1 1976:1 22737:1 6292:1 33:1 12975:1 26447:1
15815:1 10444:1 14896:1
27128:1 9406:1 26382:1
2264:1 16159:1 1040:1 19045:1
25059:1 7131:1
8447:1 6705:1 21482:1
16802:1 3990:1
28707:1 10105:1
24499:1 7348:1
5247:1 3589:1
19594:1 2296:1
4441:1 20518:1 18674:1 26165:1
24499:1 14739:1 22567:1
20370:1 15567:1 21057:1
11408:1 11619:1 26399:1
4801:1 26447:1
9532:1 1623:1 16950:1
9238:1 24499:1 8737:1
3092:1 3864:1 1366:1
21591:1 27855:1 12783:1
21368:1 22567:1 7423:1
23571:1 4226:1 25194:1
18149:1 23990:1 27660:1
5928:1 23291:1 24161:1
20214:1 19594:1 27135:1
9844:1 6638:1 18889:1
4163:1 2851:1
2777:1 24499:1 18068:1
9461:1 27109:1 24977:1
21493:1 15869:1
21186:1 7348:1
25094:1 26827:1 19946:1 23837:1 16713:1 24270:1 24499:1 220:1 11619:1
3350:1 8411:1 8639:1
12068:1 23436:1 16945:1 6396:1
26963:1 13613:1 16155:1 1316:1
19849:1 4939:1
17834:1 19668:1 2062:1 11619:1
5307:1 17275:1 14764:1 14997:1 24499:1 23096:1 16391:1
25010:1 8292:1 23778:1
21314:1 6332:1
10901:1 25010:1 25267:1
18588:1 3519:1 21742:1 10444:1 2332:1
3191:1 5198:1 847:1
7776:1 16582:1 25462:1 11868:1
24499:1 22567:1 10443:1 10146:1
7110:1 10105:1
21723:1 2197:1 9406:1 11619:1
20982:1 2143:1 18050:1 21720:1
21014:1 10444:1 26273:1 1287:1
8197:1 20108:1 1614:1 9532:1 25010:1 17073:1
26319:1 6891:1
8059:1 10388:1 6589:1
19994:1 13396:1
9406:1 25912:1 20370:1 18308:1 27054:1
21500:1 16481:1
16264:1 21252:1 1297:1 13887:1 23513:1 2525:1 24499:1 18220:1 13497:1 220:1 4028:1
1983:1 2137:1 7705:1 23418:1 25010:1 5285:1 12783:1
19579:1 23046:1
18876:1 16228:1 3990:1 14415:1
26580:1 8639:1 6963:1
26963:1 5926:1 10444:2 13186:1 27291:1
26945:1 4415:1 25010:1 10444:1 22046:1
2629:1 27975:1
15868:1 20992:1 27476:1
18556:1 12002:1 12471:1 8292:1 847:1
11910:1 14809:1 15365:1 21185:1 25890:1
25194:1 14976:1
24839:1 2497:1 23837:1 26019:1 4693:1 9051:1
7195:1 15417:1 1907:1 14689:1 25945:1
1723:1 20722:1
2060:1 14587:1 19954:1
3720:1 14548:1 15031:1
20518:1 1040:1
6093:1 10970:1
17862:1 1470:1
8378:1 14351:1
16455:1 13857:1
24636:1 21297:1 24499:1 10652:1
24319:1 15038:1
22567:1 17842:1 19440:1 1040:1
19904:1 11213:1
11619:1 15432:1 18195:1 14854:1 16015:1 27086:1
822:1 25965:1 14614:1 28065:1
26568:1 13733:1 14783:1
25051:1 14587:1 1287:1
17967:1 18306:1 8942:1 1297:1 14373:1
9238:1 24499:1 12478:1
10147:1 17890:1 2739:1 19231:1
21284:1 12954:1 8510:1
16713:1 1771:1
25774:1 11395:1
2214:1 10734:1 8356:1 13926:1 14450:1
6371:1 10286:1 2739:1
1563:1 2218:1
8302:1 16608:1 13055:1 10244:1 16738:1
15927:1 2197:1 23705:1 10036:1 9821:1
9289:1 23239:1
16747:1 13186:1
10036:1 21482:1 5383:1
27975:1 1623:1
21591:1 19538:1 4116:1 15819:1
22008:1 10410:1
25387:1 23078:1 8995:1
8477:1 1297:1 4731:1
17498:1 25790:1 26945:1 9894:1
3168:1 24499:1 9528:1
20238:1 7631:1 21482:1 13857:1
9238:1 24499:1 8737:1
15159:1 3751:1
1723:1 17172:1
24596:1 27813:1
2525:1 10559:1
12471:1 26134:1 17144:1 1618:1 2030:1 21896:1 11045:1 13332:1 11520:1 17684:1
6269:1 6292:1 22299:1
14587:1 6163:1 1287:1
20632:1 23013:1
25387:1 14351:1 24412:1 8462:1
16374:1 16485:1 21789:1
5247:1 3589:1
23084:1 10970:1 12362:1 26584:1
7803:1 20214:1 24499:1 11619:1 7348:1
19420:1 3884:1 8340:1 24499:1
10944:1 10444:1 14265:1 1749:1 5077:1 27975:1 220:1
1825:1 11939:1 8510:1 16251:1 6891:1
25524:1 11868:1
25364:1 25267:1
11703:1 14089:1 22676:1
11236:1 6882:1
19850:1 4163:1 15050:1
8197:1 9789:1 9532:1 9054:1 6249:1 17869:1 19001:1
5540:1 25687:1 6396:1 7348:1
3535:1 18430:1
22895:1 24301:3
19415:1 19126:1
25387:1 24423:1 6368:1 17193:1 16346:1 26447:1 10652:1
10901:1 14193:1 14675:1
7412:1 5300:1
5928:1 25194:1 13065:1 1907:1 25782:1 23705:1
18552:1 13367:1 22233:1 24499:1 19539:1
8568:1 23705:1 11619:1
23009:1 1907:1 21449:1 162:1
10797:1 7939:1 24349:1
28643:1 16901:1 560:1
18806:1 15819:1 20896:1 24967:1 9238:1 1451:1 24499:1 10595:1 21124:1 8737:1
6001:1 9052:1
25217:1 24499:1 17852:1 22158:1
28417:1 20836:1 12152:1 297:1
6159:1 27080:1 13384:1
3168:1 24838:1 23837:1 14139:1
2572:1 13601:1 13739:1 12471:1
10425:1 25201:1
28104:1 24499:2 2214:1 18680:1 9595:1 3916:1 6703:1
8616:1 9231:1
23084:1 19835:1 22567:1
20544:1 23414:1
20401:1 21314:1 5567:1 16155:1
16500:1 8313:1 20010:1 1600:1
26933:1 20605:1 11619:1 18388:1 5553:1 3827:1 27476:1 220:1
14500:1 5485:1 18665:1
24301:3 13733:1 10444:1
16155:1 12645:1
26861:1 24499:1 20858:1 23797:1 3720:1
13472:1 25390:1
14343:1 17275:1
11367:1 26210:1
17661:1 10636:1
19539:1 19251:1 24769:1 17317:1 22067:1 22895:1 10444:1 24806:1
1123:1 12002:1 25010:1 24997:1 10444:1 17241:1 23527:1
16548:1 5449:1 17177:1 19140:1
7733:1 20728:1
11215:1 10444:1 12750:1 4754:1
4362:1 19954:1 28676:1 847:1
23450:1 25155:1 14451:1
25387:1 24499:1 5635:1 865:1 12953:1
23955:1 813:1
8193:1 21881:1 19001:1
10810:1 1297:1 23239:1 10444:1 20484:1 14089:1 4444:1
14033:1 21274:1 24499:1 4206:1 8210:1 3720:1 25890:1 21407:1
4434:1 20986:1 24499:1 16168:1
28740:1 12745:1 2587:1 1938:1
3822:1 25902:1 25903:1 18004:1 14492:1 25256:1
28324:1 21813:1 11608:1
1626:1 22733:1
968:1 22567:1 10443:1
26932:1 26722:1 27256:1
26963:1 28578:1 18876:1
12259:1 20269:1 2029:1 14896:1
21935:1 3589:1 28033:1 14306:1
21701:1 13141:1 11815:1
4897:1 7348:1
5967:1 3421:1 1253:1 20835:1 22206:1 25113:1 220:1 7348:1
20877:1 17626:1 10828:1 21300:1 9371:1 1587:1 16916:1
12134:1 847:1
5635:1 23360:1 1369:1
757:1 15997:1 9083:1
1782:1 1538:1
15689:1 17269:1 13926:1 17011:1
19440:1 24769:1 22567:1 12002:1
21591:1 21464:1 15819:1
11619:1 6509:1
968:1 11662:1
1695:1 20992:1 11352:1 16738:1 220:1 14835:1
16500:1 23296:1 18565:1 16954:1
10997:1 2121:1 16713:1 19189:1 10521:1 23764:1 25180:1
6371:1 20992:1 1587:1 13329:1
19412:1 15226:1 19146:1 8197:1
16435:1 21935:1 10444:1 12629:1
21212:1 21297:1 8449:1
11619:1 12651:1
9238:1 24499:1 8737:1
28217:1 5250:1 28707:1
15890:1 27732:1 24499:1 15060:1
5898:1 14700:1 27272:1
23418:1 5024:1 9313:1 13300:1
20238:1 21482:1 27615:1 17947:1 19456:1 13839:1 27542:1
15532:1 26527:1 1297:1 20611:1 23837:1 26429:1 1094:1 24047:1
7032:1 22804:1
993:1 16339:1 14655:1
1626:1 22733:1
28804:1 8041:1
9215:1 11215:1
21204:1 19015:1 11538:1 21881:1 24499:1 4875:1 2366:1
6706:1 20044:1
9017:1 18167:1
21579:1 27919:1 19459:1 2401:1
3249:1 12205:1 12390:1
9238:1 24499:1 12478:1
18550:1 5836:1
16339:1 12443:1 939:1 6382:1
11823:1 21613:1 15509:1
19772:1 22567:1
13388:1 24499:1 7086:1 25266:1
26446:1 5449:1 19668:1 2062:1
13494:1 8390:1 18569:1
20664:1 20958:1 12449:1
8267:1 7234:1
19897:1 2372:1 19538:1 6606:1
17975:1 17876:1 11836:1
19668:1 19135:1
18201:1 8197:1 24358:1 3105:1
25094:1 22567:1 7495:1
10833:1 15001:1
19850:1 28217:1
18561:1 5602:1 28772:1
20820:1 8267:1
27449:1 1272:1
7649:1 2024:1
16104:1 12471:1 28359:1 16060:1 3671:2
4441:1 17389:1 14493:1
24301:1 18875:1 17260:1
13522:1 18140:1 220:1
22844:1 15432:1 23972:1 21300:1 22067:1 27086:1
18720:1 7496:1
575:1 23297:1
18556:1 2197:1 15575:1 3103:1
20820:1 27560:1
19345:1 9595:1 25010:1 24351:1
9238:1 24499:1 8737:1
20806:1 3919:1 220:1 23360:1 13641:1
23046:1 28377:1 3075:1
13515:1 8461:1 5586:1
4944:1 3092:1
1563:1 7716:1 20958:1 28516:1 7540:1 7748:1
10444:1 4754:1 6723:1
12535:1 11619:1 22993:1
8681:1 16435:1 8292:1 18889:1
17975:1 20560:1 877:1 23703:1
2542:1 17548:1 9639:1 6292:1
8748:1 5225:1 6368:1
23418:1 8568:1
16714:1 111:1
8527:1 28324:1 16200:1 13092:1
3027:1 5615:1 6292:1 20036:1 16681:1 11718:1 4875:1
27198:1 10444:1 9614:1
12177:1 4072:1 14189:1
9238:1 24499:1 8737:1
22071:1 15116:1
25774:1 17542:1 24070:1
24435:1 20377:1
19814:1 19772:1 10444:1 7450:1 25256:1
4820:1 2197:1 16707:1
22418:1 3385:1 12726:1 12471:1 9371:1 297:1 4441:1 10961:1 24499:1 22206:1 7348:1
9238:1 24499:1 8737:1
6705:1 12471:1 16228:1 2121:1 19599:1 8162:1
24062:1 6309:1 9049:1 11619:1 12046:1
18400:1 17033:1 20777:1 6280:1 10036:1 15997:1 25381:1
13643:1 7724:1 8133:1 22885:1 9532:1 24499:1 17089:1
9238:1 24499:1 8737:1
9238:1 24499:1 8737:1
22806:1 2121:1 9595:1 16681:1 15226:1 22078:1
13388:1 26623:1
4820:1 16802:1
20904:1 6494:1 28609:1
13922:1 22830:1 23051:1
18388:1 27491:1
996:1 19770:1
9238:1 24499:1 8737:1
4709:1 2218:1
14221:1 12471:1 19528:1 5498:1 11056:1 20060:1 220:1
16767:1 28525:1 14956:1
21499:1 5264:1
20560:1 24499:1 12172:1
9238:1 24499:1 8737:1
18110:1 28079:1 15534:1 12297:1
19501:1 25868:1 12471:1 7432:1 23800:1 17975:1 23297:1
4441:1 9325:1 26958:1 17171:1
12134:1 25447:1
22847:1 13387:1 1245:1 27719:1 15088:1 11408:1
575:1 877:1 3720:1
16554:1 14739:1 27420:1
25010:1 25928:1
14351:1 5600:1 1738:1
24331:1 4822:1
25306:1 10444:1
24499:1 26845:1 16013:1 813:1
19146:1 8510:1 12954:1
25774:1 18968:1 28266:1
21805:1 5644:1
19290:1 19954:1
6186:2 1587:1 813:1
12683:1 16294:1
16294:1 2370:1
25010:1 10444:1 18550:1
1723:1 13223:1 1040:1
25868:1 14828:1 27272:1
18538:1 27077:1 20976:1
14761:1 15001:1 9362:1
3894:1 4525:1 20392:1 25827:1 220:1 12254:1
55:1 26273:1 6396:1 847:1
24075:1 9853:1 8636:1 21641:1 10189:1
7939:1 12555:1
16802:1 4116:1 15819:1
20518:1 4149:1 7348:1 11724:1
7951:1 1955:1
14550:1 9532:1 8203:1 13639:1
7756:1 23620:1 3668:1
6452:1 17391:1
4443:1 11144:1 15855:1 18306:1 19653:1 26653:1
25871:1 11619:1 15432:1 23037:1 24499:1 18674:1 28522:1 27086:1
27080:1 25010:1 11384:1 2525:1 24499:1 7926:1
9238:1 24499:1 8737:1
28586:1 21272:1 16120:1 23939:1 5006:1 220:1 3720:1
25690:1 16707:1
5602:1 6684:1 6269:1
9939:1 21475:1
25615:1 24042:1 2029:1 24768:1
19817:1 20053:1 19231:1
20819:1 4521:1 3713:1
993:1 3092:1 21482:1
11790:1 22312:1
23477:1 3245:1 751:1 10684:1
27793:1 24769:1 22233:1 12002:1
9952:1 11909:2 18048:1
10602:1 19056:1
3234:1 2399:1
9452:1 11719:1
13926:1 10147:1 23396:1 508:1
21943:1 7401:1 18793:1 3720:1
23360:1 17672:1
10648:1 20138:1 363:1 22637:1
14358:1 5928:1 4075:1 20242:1
18170:1 14443:1
18303:1 20027:1 9418:1 16374:1 563:1 21002:1 7889:1 27272:1 28356:1
25339:1 19440:1 13887:1 19564:1 10684:1
24499:1 3092:1 25928:1
20272:1 13677:1 17947:1
26319:1 23209:1 5835:1
21613:1 24499:1 21983:1
17290:1 5567:1 13946:1
1752:1 23957:1
21011:1 22746:1 23781:1 16382:1 10254:1
8788:1 1312:1 7815:1
2525:1 10443:1
24773:1 5635:1 14896:1
25619:1 18900:1 12471:1 2081:1
5635:1 20269:1 14896:1
26199:1 2143:1 8361:1 16681:1 21300:1 10444:1 20461:1
20158:1 10444:1 14771:1
17880:1 8193:1 27942:1 20874:1 24499:1 15997:1 26447:1 980:1
18205:1 6934:1
9532:1 8671:1 8331:1 21292:1
10849:1 14404:1
12471:1 4203:1 3821:1 25370:1
17172:1 25176:1
23129:1 4116:1 15819:1
22721:1 12471:1 1297:1 21433:1 2066:1 5134:1 8581:1
5222:1 27803:1
12560:1 4820:1 10944:1 5676:1 1749:1 5798:1 28290:1 11215:1 27352:1 220:1 13641:1
24768:1 15101:1 3841:1
25874:1 4320:1 4819:1
9238:1 24499:1 8737:1
6159:1 24499:1 17611:1 11384:1
9238:1 24499:1 8737:1
14515:1 6136:1 23291:1
21613:1 1283:1 27927:1
11619:1 24499:1 3442:1 6396:1 7348:1
3740:1 25113:1
27001:1 25770:1 10444:1 10758:1 21475:1
14221:1 2062:1 7309:1
21701:1 7972:1 12471:1 7401:1 3103:1
2703:1 20998:1
28410:1 18233:1
24301:3 6368:1
7331:1 14700:1 17644:1 9238:1 10145:1 24499:1 28624:1 3464:1 8737:1
8872:1 4820:1 2214:1 9460:1 23993:1 16681:1 7348:1
28104:1 25279:1 26478:1 21002:1
22255:1 563:1 23291:1 1907:1 16728:1
24224:1 1685:1 14325:1
14343:1 7348:1 11664:1 24500:1
19422:1 11619:1 14801:1 9595:1 25180:1 220:1 7199:1
4820:1 8197:1 33:1 15730:1
660:1 13639:1 18170:1
2575:1 11841:1 16224:1
14938:1 4075:1
2648:1 18876:1 26508:1
20958:1 7401:1
21464:1 16802:1 15819:1
25266:1 18266:1
7439:1 7348:1 5278:1 847:1 14937:1 11218:1 8778:1
1976:1 10997:1 15945:1 21203:1
9238:1 24499:1 8737:1
6534:1 25797:1 5164:1
21429:1 20286:1
10370:1 13946:1
23319:1 28359:1 25945:1 23037:1 1824:1 16945:1
25387:1 9623:1 26290:1 22594:1
15630:1 28634:1 10453:1 25010:1 10444:1 13186:1
17426:1 23209:1 27845:1 563:1
24038:1 1002:1 26399:1
12475:1 17476:1 1403:1
21896:1 26576:1 24499:1 24180:1
21464:1 368:1 15819:1
9238:1 24499:1 8737:1
19450:1 11755:1
7585:1 15488:1 10490:1 16484:1 12471:1 13887:2
13613:1 2197:1 220:1 14064:1 5498:1 20060:1 27583:1 19751:1
9238:1 24499:1 8737:1
5384:1 1563:1
3894:1 4822:1 6792:1
15819:1 20406:1 28764:1
14997:1 6425:1
575:1 20281:1 21149:1 3051:1
12449:1 3723:1
22567:1 11619:1 12002:1
11230:1 28479:1
12852:2 6669:1 12471:1 5602:1
11408:1 22791:1 22609:1
19974:1 9406:1 12783:1 22971:1
3685:1 15539:1
16574:1 23659:1
12286:1 11154:1 11969:1
9191:1 870:1 15282:1
15742:1 27194:1 14834:1
15316:1 28359:1 7748:1
12443:1 10444:1
6301:1 5712:1
14769:1 15741:1 21156:1
6159:1 24499:1 6693:1 14451:1
18174:1 24499:1 11905:1 8133:1 16815:1
16339:1 12443:1 27615:1
5715:1 14956:1
23901:1 11127:1
7540:1 10147:1 7647:1 3103:1
15742:1 14834:1
19040:1 18383:1 5449:1
21591:1 4116:1 15819:1
24499:1 1738:1 813:1
21613:1 3007:1 9973:1
14343:1 22885:1
14399:1 25010:1
26239:1 18569:1
28003:1 10783:1 19564:1 1996:1 19189:1 22567:1
11221:1 10444:1
26319:1 8203:1 24499:1 9856:1 813:1
6546:1 7335:1
13752:1 17317:1 11619:1
25105:1 9938:1 8412:1 13614:1 20518:1
15482:1 12783:1
1723:1 24838:1 22847:1 8920:1 23360:1
9938:1 2062:1
15742:1 24499:1 10444:1 1616:1 12865:1 21055:1 9238:1 15844:1 24854:1 27194:1 8737:1
25462:1 27230:1 11875:1 16531:1
7667:1 26620:1
26932:1 24896:1
8302:1 21885:1
19850:1 16620:1 3007:1 6703:1
25874:1 4320:1 4819:1
11375:1 15513:1
20958:1 27641:1
8079:1 15741:1 10254:1 6186:1 3830:1 13926:1
2847:1 16553:1
3385:1 23705:1 22252:1 24321:1
10444:1 21881:1 16680:1 27353:1
24230:1 25010:1 9764:1
25615:1 11619:1 13887:1 7335:1 19126:1
1297:1 16013:1 27745:1
15742:1 21613:1 24499:1 4180:1
25713:1 25319:1 9238:1 24499:1 10444:1 11520:1 8737:1
9620:1 25094:1 1207:1 1297:1 12517:1
11619:1 23676:1 15642:1 25059:1 220:1 15579:1
18893:1 27927:1 12193:1
26334:1 24919:1
11538:1 7677:2 12471:1 6202:1
10444:1 20188:1
14502:1 17234:1 8136:1 5988:1
12557:1 19285:1 20018:1
12443:1 5419:1 20044:1
15247:1 2197:1 17730:1 11729:1 14938:1 17617:1
15742:1 6371:1 8182:1
11384:1 1976:1 6361:1 23837:1 847:1 27623:1 9371:1
3990:1 24500:1
14307:1 12584:1
9772:1 24499:1
18343:1 19977:1 2066:1 12471:1 10997:1 15819:1
4854:1 15730:1
9238:1 24499:1 8737:1
9238:1 24499:1 8737:1
16221:1 18674:1 23348:1
2777:1 24499:1 18068:1
18552:1 14938:1
22895:1 14720:1 16681:1
7124:1 4270:1 25194:1 16802:1 18204:1 16200:1 1723:1 9532:1
25812:1 16802:1 23567:1
26451:1 8822:1
5963:1 1461:1 24358:1
14343:1 5250:1 6674:1 19170:1 27272:1 19126:1
26763:1 24509:1
21356:1 11704:1
4916:1 11288:1 11662:1
12560:1 17626:1 11619:1 21591:1 5798:1 9187:1 2066:1 25010:1 220:1
26319:1 1835:1
22595:1 1907:1 15700:1 19732:1
8197:1 11074:1 12044:1
18191:1 28586:1 3519:1 19151:1 19277:1 28210:1
14780:1 10444:1
13113:1 28218:1 2137:1 10569:1 25334:1 11969:1
3191:1 23527:1
27295:1 12002:1 16630:1
18585:1 10444:1 19817:1
12653:1 27641:1 24996:1
26718:1 9938:1 3576:1 19169:1
54:1 10444:1 18230:1 26273:1 27521:1
4820:1 21591:1
22717:1 14089:1 24390:1
2579:1 13065:1
9238:1 24499:1 8737:1
22855:1 3526:1 220:1 20008:1 1283:1
9238:1 24499:1 8737:1
24338:1 7348:1 12259:1
20204:1 3990:1 3525:1
8568:1 23705:1 11619:1
21613:1 2197:1 23242:1 25871:1
19511:1 13367:1 10614:1 693:1 24499:1 19126:1
7911:1 28188:1
26354:1 19332:1 4149:1 12471:1 8582:1 8685:1 5449:1 25339:1 2128:1 10444:1 21368:1
23092:1 3552:1 20104:1 13640:1 16060:1
10950:1 25886:1
10156:1 9532:1 25194:1 16443:1
7439:1 5278:1 18848:1 24499:1 16155:1 24147:1
16889:1 2797:1 12192:1
10865:1 6408:1
8698:1 6101:1 9166:1 25607:1 13501:1
1528:1 14670:1 11349:1
16554:1 24499:1 28209:1 3549:1
12831:1 16542:1
13373:1 23629:1
5247:1 3589:1
