3889:1 26189:1
28161:1 5278:1
24301:1 20541:1 13691:1 5893:1 220:1
16155:1 5959:1 10444:1
19122:1 13165:1 16484:1 14144:1 24499:1 18691:1 220:1 7348:1
12384:1 26235:1
28565:1 10444:1 3720:1
14906:2 12471:1 17623:1
16334:1 15303:1 8356:1
9778:1 20207:1 220:1
16149:1 26642:1 11619:1 1116:1 21613:1 16708:1 24148:1
18552:1 14343:1 12471:1 6292:1 24301:1 10444:1 25543:1 1118:1
13113:1 1502:1 3441:1
25180:1 5620:1 27973:1
28027:1 12193:1 13639:1
20992:1 17645:1 11815:1 22231:1 220:1
5513:1 1847:1 2214:1 18935:1 7556:1 11442:1 24293:1 220:1
16826:1 24579:1 25801:1
1296:1 1297:1 27106:1
12263:1 6361:1
5522:1 24499:1 1297:1 19682:1 20413:1
27622:1 519:1
23169:1 718:1 20889:1 220:1
18191:1 16514:1 21204:1 2936:1 9968:1 24499:1 10444:1
26363:1 2579:1 11619:1
24344:1 3572:1 220:2 2086:1
15063:1 13588:1 19225:1 23837:1 647:1
22982:1 14112:1 1297:1 20484:1
20874:1 14439:1 12471:1 4847:1
19836:1 12471:1 5187:1 5082:1 21799:1 10652:1
3579:1 2424:1 24499:1 3816:1
12471:1 7775:1 25916:1 5327:1 10444:1 22968:1 7113:1
26380:1 22183:1
28274:1 4198:1 22497:1 388:1
21566:1 4449:1
21204:1 24499:1 23291:1 4026:1
13527:1 4273:1
18737:1 27208:1
2174:1 19515:1 15452:2 24499:1 10444:1 20207:1
24301:3 22855:1 6975:1
12384:1 178:1 3572:1 9268:1 16553:1 220:1
1040:1 23967:1 20194:1 16200:1 4163:1
12831:1 21464:1
21265:1 24459:1
100:1 24118:1
7857:1 718:1 28387:1 8510:1 16374:1 21493:1 3139:1 143:1
16970:1 14461:1
5948:1 12593:1
11996:1 2772:1 7412:1 6282:1 23837:1 784:1 13046:1 28399:1 220:1 15836:1
7218:1 11882:1 28637:1 3726:1 15095:1 26165:1 15092:1 220:1 9166:1
19440:1 7956:1
4441:1 23778:1 20718:1
12387:1 3099:1 5913:1 23603:1 12819:1
24988:1 16015:1 26811:1
20874:2 14792:1 5499:1
20238:1 24499:1 7776:1 27709:1 26017:1 9532:1 25010:1 2214:1 7820:1 3020:1
14946:1 2015:1 19636:1 8510:1
19974:1 10147:1 17664:1 4933:1 17030:1 4761:1 220:1 14359:1
20987:1 4861:1 1253:1
6705:1 24499:1 4939:1 21475:1
28109:1 13926:1 3572:1 220:1 17884:1
14320:1 19320:1 17774:1 1721:1 3691:1
14403:1 24046:1 16923:1 15300:1 11619:1
19629:1 12808:1
20982:1 14550:1 5993:1 26271:1 2062:1 12783:1
15729:1 21713:1
27029:1 1403:1
24301:3 22312:1
26748:1 21225:1 24294:1 220:1 8205:2
2028:1 13722:1
28109:1 19824:1 3589:1 28587:1 13926:1 220:1
2197:1 19751:1 14064:1
14343:1 12471:1 4163:1 25234:1 10444:1 6396:1
9513:1 3441:1
21740:1 6242:1
1297:1 24459:1 16050:1 12009:1 12237:1 28109:1 12471:1 26709:1 26910:1 4939:1 12521:1 220:1
11823:1 16374:1 8804:1 21613:1
9513:1 3441:1
15376:1 5553:1
1723:1 11114:1
565:1 19109:1
19920:1 4606:1 15434:1 3775:1
4025:1 14707:1
16485:1 21789:1
20059:1 7412:1 14699:1 24499:1 3765:1 8737:1 10951:1
18876:1 23316:1 15288:1 25593:1
12562:1 24499:1 23705:1 9371:1
6030:1 27732:1 3572:1 220:1 26654:1
16175:1 10983:1 21954:1 20322:1 18896:1 21265:1 10444:1 12564:1
13926:1 7339:1 4939:1
16485:1 21789:1
12471:1 15529:1 27249:1
15253:1 9260:1 24371:1 2066:1 5134:1 18812:1
16740:1 1297:1 21233:1
18175:1 17038:1 11619:1
20185:1 15426:1 19367:1
22954:1 21720:1 23841:1
3443:1 3569:1
7087:1 11408:1 2579:1 7371:1 15326:1
25105:1 8485:1 12471:1 16983:1 10186:1 220:1
13522:1 10444:1 15418:1
8400:1 20207:1 24594:1
12658:1 6242:1
19019:1 27851:1 25591:1 3572:1 21881:1 24499:1 18220:1 220:1 161:1
12471:1 9621:1 19771:1
7781:1 1297:1
28359:1 16484:1
16330:1 11022:1
2112:1 8133:1 12193:1 21300:1 17381:1 22206:1
27086:1 21043:1 1414:1 3396:1 15432:1
22808:1 6677:1 12471:1 1297:1 22508:1 21041:1 220:1
11419:1 1349:1 12049:1
80:1 12471:1 10433:1
13613:1 24375:1 25300:1
2112:1 14451:1
769:1 956:1 11619:1 13693:1 21121:1 3720:1
14035:1 4266:1 11619:1 19515:1 15616:1 24499:1 10444:1 220:1 24820:1
21314:1 55:1 28506:1
756:1 4643:1 26911:1
4163:1 1699:1 11619:1 3720:1
7241:1 13377:1 24499:1 12585:1 6647:1
1291:1 27053:1 12471:1 16397:1
780:1 13772:1 24499:1 10494:1
7781:1 4939:1
17196:1 27190:1 4861:1 6066:1 16879:1 18608:1
26126:1 18167:1 24584:1 5452:1 4266:1
18793:2 14792:1
11882:1 6740:1 3572:1 9931:1 10788:1 220:1
13527:1 25871:1
24838:1 4149:1 15696:1 22960:1 11619:1 4198:1 2662:1
21755:1 12471:1 28781:1 24040:1 19122:1 15997:1 220:1
25845:1 25871:1 12471:1 11078:1 3635:1 8403:1 220:1
24338:1 3291:1 18306:1 19415:1 1799:1 1297:1
8748:1 2329:1 4939:1 22516:1 15914:1 471:1
683:1 12140:1
4805:1 24038:1 8878:1
13522:1 10147:1 20270:1 25890:1 27033:1
14248:1 9321:1 21613:1 10444:1 13926:1 2081:1
26963:1 7009:1 1074:1 2810:1 10444:1 3092:1 5856:1 11352:1
12698:1 11619:1 9778:1 5327:1 13120:1 220:1 26091:1
15188:1 759:1 28805:1 7545:1 5198:1 1002:1 15997:1 15616:1 220:1
9618:1 569:1 25280:1 12370:1 15576:1
220:1 22208:1 15495:1 24499:1 55:1 6397:1 11851:1
127:1 2642:1 20386:1 10444:1 4444:1 220:1 17420:1
10444:1 21933:1 25945:1
12503:1 14064:1
10444:1 12471:2 13926:1
28325:1 7935:1 12580:1 14064:1 1296:1 220:1
8478:1 20281:1 6698:1 20203:1 837:1 220:1
25838:1 25394:1 24379:1 24449:1
25105:1 16374:1 25010:1 17582:1 220:1 6960:2 4032:1 10267:1 2697:1
2522:1 26210:1 9238:1 24344:1 837:1 15674:1 12471:1 10444:1 17110:1 18008:1 28417:1 9756:1 220:1
25319:1 27759:1 25010:1 17269:1 21613:1
3740:1 19952:1 751:1 3572:1 111:1 13585:1 12631:1 25010:1 15997:1 220:1
14946:1 7496:1 17243:1 5697:1
20992:1 3572:1 25097:1 22980:1 14052:1 220:1
2526:1 15963:1 5501:1
14946:1 9860:1 17856:1 4266:1
22150:1 7496:1 25397:1 7728:1 4765:1
14172:1 10901:1 1927:1 20207:1
220:1 12638:1 24548:1 17876:1 25256:1 13744:1 26417:1 25319:1 19026:1 24499:1 6396:1 161:1
3588:1 3031:1
24014:1 20511:1 17876:1 24459:1 14652:1
10783:1 16620:1 1297:1 12961:1
28027:1 10600:1 1297:1 15979:1 17290:1 15706:1
15077:1 20484:1
8011:1 12471:1 14733:1
13522:1 16554:1
2112:1 14451:1
2555:1 6000:1 9391:1
12471:1 8220:1
10014:1 22384:1 18348:1 16168:1 19529:1
14160:1 16194:1 6284:1 12471:1 11022:1
26963:1 19820:1 24499:1 10067:1
15729:1 27922:1 15861:1
13951:1 24499:1 14845:1
28027:1 28391:1 19675:1 23078:1 6618:1 25371:1 25256:1 3720:1
11619:1 28506:1 1920:1 220:1 7400:1
22885:1 7599:1 23750:1 16923:1 1395:1
7502:1 22881:1
25871:1 69:1 4939:1 1430:1 21947:1 7568:1 25010:1 10444:1 220:1
10607:1 3099:1 18665:1 3572:1 4127:1 13926:1 19911:1 7314:1 220:1
25105:1 7900:1 10633:1 26756:1 11060:1
21613:1 12022:2 6647:1
26604:1 17975:1 27733:1 4444:1 11619:1
680:1 16353:1 10159:1 28188:1
14618:1 851:1 23841:1
28109:1 23871:1 220:1 3572:1
7639:1 5984:1 18186:1
25105:1 25600:1 28506:1 24048:1
17159:1 24499:1 11619:1 220:1
5766:1 1297:1 12761:1
8202:1 11022:1 8136:1 15069:1
8240:1 18066:1 2562:1
26458:1 24998:1
12471:1 28624:1 16821:1
8129:1 19122:1 14707:1
7451:1 1419:1 4444:1 28506:1
6000:1 4238:1 16747:1 19959:1 220:1 4292:1
3027:1 12471:1 17425:1 27697:1 10444:1 24499:1 9909:1
17324:1 26933:1 24499:1 15802:1 15861:1
9763:1 19924:1 22931:2 23404:1 19061:1 8356:1 10444:1 6661:1
12471:1 3572:1 27233:1 677:1 20987:1 4297:1 13423:1 220:1
1817:1 28109:1 13838:1 26953:1 3572:1 8983:1 19041:1 13926:1 25890:1 220:1
15077:1 8526:1 8665:1 1297:1 220:1
8314:1 18340:1 1430:1
19193:1 9690:1 24236:1 16621:1 8535:1 3636:1 20242:1 9650:1
14380:1 27853:1 16681:1 19281:1
16485:1 21789:1
10014:1 25162:1 24499:1
24301:3 12471:1 17144:1 9504:1 14584:1 10091:1
3993:1 15434:1 10614:1
10444:1 11619:1
15729:1 25890:1 6565:1 24499:1 28781:1 27988:1 24728:1 5199:1 3134:1 220:1 3572:1
4411:1 10036:1 1297:1 11022:1 12964:1 17000:1 16187:1 10093:1 10444:1 220:2
25916:1 19187:1 1074:1 8965:1
6396:1 23972:1 16681:1 12756:1 7025:1 13887:1 1442:1
24014:1 24311:1
21359:1 27086:1 17825:1 12050:1 15432:1
6280:1 20207:1
19077:1 23037:1 27272:1 13191:1
27056:1 15802:1 3572:1 1470:1 8295:1 220:1
19651:1 27595:1 220:1
2853:1 12471:1 10112:1 2683:1 13843:1
14418:1 14033:1 1419:1
25010:1 11871:1 13779:1 4939:1 3552:1 24499:1 28399:1
11388:1 10586:1 8460:1 17812:1 26205:1 220:1
24301:3 12471:1 13015:1 5282:1
6999:1 9368:1 220:1
26953:1 12471:1 1297:1 2223:1 4939:1 15836:1
26215:1 12471:1 9891:1 220:1
9808:1 11619:1
6371:1 22254:1 24565:1 13843:1 7649:1 12471:1 17666:1
17834:1 5996:1 27375:1
25217:1 1907:1 10686:1
14343:1 26953:1 25591:1
28586:1 7972:1
13772:1 24499:1 12471:2 16484:1 4266:1
2038:1 10529:1 7504:1 18935:1 2908:1
962:1 11033:1 773:1 16864:1 6186:1 12471:1
4172:1 12471:1 24341:1 3572:1 2174:1 16338:1 9587:1 13926:1 220:1 8863:1
26215:1 11482:1 16374:1 14943:1 10693:1 220:1
15013:1 25301:1 28499:1 3186:1 20914:1 8356:1 10444:1 9783:1 26286:1
19744:1 19674:1 12471:1 1297:1 12338:1
27282:1 4757:1
16183:1 759:1 24499:1 4427:1
27605:1 24499:1 1297:1 24329:1 17138:1 12471:1 4543:1 4939:1 8205:1 16163:1 20125:1 25010:1 220:1
25411:1 6159:1 24904:1 16583:1 1291:1 220:1 12564:1
3610:1 25105:1 377:1 11619:1
14460:1 21484:1 7032:1 10221:1 11619:1 4163:1 3569:1 22638:1 7972:1
5811:1 12471:2 3105:1
6471:1 3814:1 14035:1 11619:1 3720:1
1222:1 16429:1 15857:1 26220:1
25871:1 17512:1 23265:1 1225:1 24344:1 24180:1 14016:1
15616:1 16155:1 7764:1 13536:1
15729:1 3668:1 25761:1 27427:1 20068:1 22971:1 6326:1 25890:1
21661:1 15997:1 8646:1 12481:1
12058:1 12471:1 4162:1 5278:1 16408:1 23323:1 9874:1 16434:1 220:1
4810:1 26363:1 9763:1 8028:1
24540:1 20646:1
27808:1 3847:1 17836:1 220:1 5152:1
23538:1 8010:2 220:1 7311:1
25189:1 21879:1 12002:1 21312:1 26963:1
3168:1 9853:1 21482:1 220:1
11388:1 13692:1 3084:1 24186:1 17812:1
16485:1 21789:1
1917:1 23939:1 21225:1
15280:1 21295:1 5970:1
19692:1 565:1 4763:1 25010:1 220:1 15106:1
15062:1 751:1 25010:1 1297:1 18068:1 4939:1 24499:1 12471:1 10288:1 220:1 9621:1
27142:1 12471:1 4195:1 18186:1 25600:2 20874:2
2215:1 4822:1 1040:1 19332:1 20593:1 22567:1
9908:1 8133:1 2692:1 17808:1 2582:1 220:1
26843:1 4757:1 10444:1 26332:1 220:1 27520:1
7412:1 20913:1 4939:1 21613:1 1291:1 25039:1 25010:1 220:1 22176:1
9772:1 3775:1 25928:1
17241:1 14884:1 12471:1 23608:1 3785:1
20122:1 1297:1 4939:1 25201:1 25010:1 16155:1 5580:1 220:1 16923:1
12835:1 24480:1 23586:1 24236:1
25189:1 9016:1
25010:1 23242:1 14986:1 7775:1 15616:1 24499:1 5553:1 13482:1 26447:1
25105:1 12982:1 20714:1
25845:1 220:1 27112:1 19911:1 28094:1 16530:1 13571:1
14089:1 24499:1 17445:1 4939:1 2484:1
15297:1 23037:1 9595:1
17324:1 1549:1 2121:1 220:1
14822:1 8205:1 6167:1 25797:1 220:1 10186:1
8011:1 26748:1
7639:1 24301:3 22200:1
4878:1 19225:1 2514:1 28253:1
20912:1 3589:1 22638:1 19690:1 8457:1 10444:1
18430:1 24499:1 5465:1
26691:1 25010:1 1297:1 3726:1 4939:1 23316:1 15092:1 12277:1 24499:1 12471:2 220:1
28027:1 7094:1 27853:1 24499:1 17270:1 13934:1 5198:1 4810:1 4253:1
25105:1 12373:1 18366:1 12518:1 13926:1 26836:1 3572:1 16374:1 22885:1 21225:1 16155:1 220:1
20162:1 27382:1 15488:1 9509:1
5790:1 16451:1 1297:1 5586:1 14101:1 12471:1 20595:1
16485:1 21789:1
13495:1 27086:1 20207:1 15432:1
16485:1 21789:1
26399:1 220:1 4975:1
6496:1 19332:1 17384:1 15373:1 20475:1
12544:1 3589:1
12471:2 13361:1 18414:1 21881:1 1493:1 28744:1 220:1
3168:1 9853:1 12471:1 19225:1
6353:1 6000:1 1297:1 4195:1 11652:1 9044:1
19193:1 24499:1 13937:1
1733:1 11566:1 24499:1 12445:1 22245:1 2562:1
14923:1 8295:1
11882:1 27633:1 24344:1 17666:1 13304:1 27583:1 95:1
28470:1 10444:1 26740:1
9490:1 10329:1
9850:1 27105:1 3572:1 7728:1 17530:1 25262:1 17066:1 13978:1
26363:1 21500:1 27272:1
25010:1 220:1 28547:1 24977:1
6661:1 3864:1 819:1
22174:1 19511:1 6302:1 16435:1 23602:1
6031:1 26365:1
7639:1 24301:3 3705:1
25371:1 17241:1
1874:1 24922:1 17425:1
16257:1 10063:1 16168:1 15232:1 18882:1
14930:1 20185:1 16747:1 4619:1 4238:1
11327:1 12471:3 4456:1 7505:1 28347:1 12347:1 24499:1 220:2
11909:1 3841:1
24499:1 4829:1 2430:1
15723:1 12209:1 25264:1 21337:1 21613:1 19636:1 220:1
12471:1 19225:1 475:1 14064:1 2579:1 15836:1
563:1 17324:1 10652:1 16072:1
22091:1 5524:1
8386:1 22737:1 2817:1 28763:1 21586:1 220:1
13089:1 2038:1 22971:1 18674:1 490:1 1297:1 220:1 14289:1
21881:1 20836:1
25010:1 13744:1
26437:1 16554:1 19811:1 27420:1
1442:1 27753:1 19751:1 2562:1
4820:1 18191:1 20080:1 13934:1
11482:1 12471:2 4927:1 6294:1 25637:1 18005:1 220:1
17881:1 3249:1 21474:1 10392:1 11619:1 12352:1 25812:1 26015:1 2137:1
26644:1 14618:1 16802:1 1685:1 12002:1
6913:2 26963:1 1461:1 7759:1 12471:1 25369:1
2772:1 28399:1
216:1 4575:1 16155:1
6264:1 23990:1 14407:1 14293:1 28415:1 6326:1 15237:1
21568:1 55:1
7496:1 17645:1 28538:1 2253:1 21613:1 13722:1 11428:1 24713:1 15802:1 3572:1 9595:1 24499:1 3245:1 220:2 4635:1
28621:1 21436:1 1297:1 2121:1 1142:1 17400:1 9509:1 4020:1 27521:1
20270:1 10711:1
24014:1 5790:1 10444:1 13302:1
8681:1 27382:1 12132:1 15836:1
23037:1 4634:1
27376:1 22956:1 7339:1 220:1 4195:1
24572:1 26006:1 5625:1
127:1 26363:1 12471:1 11619:1 17834:1 21547:1 16916:1 4444:1 220:1 2074:1
16374:1 14372:1
14739:1 6301:1 220:1 20807:1
686:1 24499:1 220:1 17425:1 24529:1
25319:1 3781:1
16747:1 14503:2 12471:1 10105:1
24297:1 15013:1 22571:1 10373:1 1652:1
28395:1 20736:1 220:1 20162:1 25010:1 9756:1 20207:1
25871:1 220:1 898:1 12000:1 17061:1 6638:1
6819:1 25600:1 21265:1 5981:1 1297:1
11620:1 17690:1 17812:1
1085:1 21897:1 24499:1 24584:1 15979:1
21149:1 5766:1 4112:1 19924:1
22049:1 12471:1 12557:1 26247:1 3991:1
20162:1 5198:1 14684:1
26267:1 16840:1 7412:1 8058:1 26748:1 19151:1
16747:1 3569:1 10479:1 4238:1
3569:1 12006:1
3919:1 2605:1 13641:1
28470:1 3288:1
3569:1 2121:1 26779:1
22982:1 1249:1 17306:1 20874:1 7092:1 13926:1
17301:1 15044:1 4643:1 24465:1
19193:1 17275:1 3572:1 220:1
21740:1 6242:1
12417:1 12471:1 1040:1 17451:1 847:1 26604:1
8519:1 10810:1 12471:1 21433:1 8465:1
6963:1 12471:1 5264:1 19839:1 6367:1 17149:1 4032:1 27946:1 220:1 15622:1
127:1 25010:2 11428:1 2589:1 25916:1 9595:1 24499:1 4444:1 220:1 4020:1
12000:1 25871:1 17061:1 21613:1
2772:1 1442:1 28399:1 4599:1 10480:1 759:1 8193:1 7087:1 27112:1 12471:1 2015:1 220:1
27135:1 13452:1 17947:1 23843:1 1010:1 24499:1 1623:1
24499:1 2081:1 24339:1 27272:1 7234:1
11619:1 5945:1 220:1 21670:1 26247:1
13198:1 10490:1 3447:1
3610:1 2390:1 19359:1 1291:1 24499:1 7939:1 220:1 20372:2
20849:1 7409:1 27740:1 15101:1
22255:1 4763:1 12390:1
12384:1 3186:1 11619:1 1946:1
10810:1 17144:1 20822:1 15432:1 18388:1 27086:1
11482:1 10810:1 22973:1 16374:1 28466:1 16312:1 15903:1 220:1 25596:1
26932:1 9028:1 12583:1 1297:1 7413:1 5645:1 2579:1 2316:1
27103:1 1419:1 3572:1 220:1 14234:1
15549:1 3767:1 4163:1
27472:1 28129:1
26826:1 20736:1 14149:1 1297:1
26644:1 10444:1
7781:1 1297:1
19111:1 15779:1 27699:1
22258:1 14854:1 20773:1
24609:1 22291:1 5625:1 28775:1 20162:1 9594:1 19820:1 16164:1
2737:1 24462:1 22036:1
3027:1 9333:1 13655:1 7256:1 10444:1 11896:1 494:1 16015:1 16553:1
13706:1 3197:1
15714:1 5981:1 7648:1
17081:1 15062:1 3572:1 9856:1 17514:1 1820:1 220:1
16485:1 21789:1
24236:1 898:1 8294:1 24494:1 3877:1
19506:1 4149:1 15802:1 3227:1 18265:1 7936:1 2298:1 24997:1 10444:2 15622:1
2772:1 28399:1
7012:1 654:1 11559:1 4238:1 14064:1 14946:1 25600:1 12940:1 220:1
28372:1 23100:1 12471:1 26168:1 11073:1 3743:1 13926:1 20727:1 220:1 23020:1
21661:1 15297:1 19624:1 16155:1
16344:1 11482:1 8454:1
17425:1 26893:1
7092:1 24499:1 24344:1 11619:1
18674:1 17092:1
24453:1 12471:1 13165:1 14712:1 12790:1 16081:1 26845:1 25323:1 13828:1
1065:1 18943:1 25600:1
11476:1 25589:1 18220:1 16989:1 20802:1
23553:1 18017:1 23837:1
24046:1 24394:1
11734:1 19539:1 24499:1 24579:1 28781:1 4939:1 4198:1 24728:1 14793:1 26932:1 220:1
7837:1 20988:1 1720:1
21610:1 1522:1 11060:1 17808:1
220:1 12636:1 3572:1 27561:1 759:1 22418:1 837:1 28109:1 16778:1 20817:1
6952:1 21257:1
1275:1 26827:1 15529:1
3569:1 25890:1 11619:1 16553:1
24899:1 16402:1
23769:1 11619:1 25928:1
11794:1 28359:1 12193:1 10569:1 24276:1 18190:1
15897:1 16224:1 9418:1 10487:1 24499:1 13300:1
13276:1 5928:1 18235:1 21224:1 20242:1
25600:1 7806:1 2976:1
21661:1 25600:1 26933:1
1782:1 10652:1
15844:1 4511:1
22721:1 17282:1 15067:1
21666:1 23674:1 11019:1 1297:1 15188:1
5485:1 13692:1 220:1 21186:1
3385:1 7704:1
16485:1 21789:1
17150:1 26845:1
21661:1 20162:1 27709:1 21252:1
16485:1 21789:1
16485:1 21789:1
27675:1 15445:1 23134:1 25575:1
15068:1 751:1 16410:1 24579:1 4198:1
24529:1 24499:1 17275:1 11619:1 7348:1
6130:1 4643:1
3720:1 14306:1
11388:1 1297:1 1283:1 20497:1 22895:1 25556:1 15997:1 25369:1 220:2
5865:1 4149:1 24499:1 9931:1 22781:1 20807:1 27946:1 7348:1
5099:1 12002:1
4861:1 6301:1 7853:1
608:1 2679:1 17030:1 15432:1 13926:1 27086:1 10810:1 7432:1 939:1 18388:1 26554:1 3569:1
6962:1 230:1
15179:1 18509:1 12471:1 10615:1 3405:1
302:1 23668:1 14792:1 8691:1 7939:1 2954:1 23841:1
2772:1 28399:1
16500:1 26165:1 12471:1 27906:1 14218:1 10055:1 4441:1 18674:1 13843:1
24499:1 10444:1
11620:1 11571:1
4875:1 15997:1 7258:1 7348:1
6139:1 6098:1 13323:1
11667:1 19618:1 10444:1 26447:1
2579:1 2187:1 6098:1 27230:1
25830:1 14138:2 12471:1 1283:1 18276:1 15925:1 20450:1 220:1 6292:1
3:1 7401:1 3572:1 16382:1 24913:1 3190:1 220:1 703:1
2121:1 11868:1 17888:1 8039:1 27015:1 5954:1
26478:1 1616:1 23837:1 14064:1 21991:1 6309:1 25879:1 25557:1
24765:1 3572:1 20162:1 13632:1 4859:1 220:1
17197:1 16431:1 36:1 5247:1 11619:1 7639:1 10707:1 28669:1 10444:1 20602:1 220:1
21421:1 28506:1 4266:1
16954:1 5198:1 11868:1 13926:1 14855:1
28395:1 9774:1 12471:1 8205:1 844:1 220:1
4128:1 26724:1 13655:3 12471:2 21695:1 20603:1
261:1 9244:1 25808:1 26233:1 24499:1 9786:1 7939:1 220:1
23967:1 771:1 4163:1
3031:1 24499:1 11619:1
25600:1 2197:1
28109:1 25282:1 3572:1 220:1 9081:1
21808:1 19345:1 22956:1 5625:1 15116:1
28395:1 24499:1 20594:1 436:1
12831:1 17241:1 2040:1 4266:1
24499:1 15844:1 21327:1
22333:1 8386:1 332:1 28000:1
18943:1 21857:1 17693:1 2229:1 22895:1
17615:1 3572:1 4939:1 26518:1 15318:1 20718:1 27194:1 27394:1 220:1 6622:1
25141:1 27729:1 4933:1 23837:1 14527:1
15705:1 10633:1 11905:1 24863:1 27336:1 7102:1 13926:1 220:1 3572:1
859:1 12471:3 8312:1 16378:1 19741:1 24791:1 13443:1
17881:1 18191:1 15836:1 13046:1 15427:1
1297:1 23242:1
26770:1 13951:1 23705:1 26528:1
20129:1 10147:1
1855:1 20281:1 18882:1 1470:1
23280:1 22287:1
22418:1 22721:1 24115:1 9069:1 12964:1 16945:1 4032:1 11154:1 220:1 19135:1
20560:1 11062:1 16155:1 2137:1
10444:1 7351:1 9238:1 25600:1 24499:1 7234:1 8737:1
1291:1 14699:1 25713:1 6630:1 13926:1 19151:1 20912:1 28676:1 14822:1
27679:1 14618:1
16650:1 20725:1
7195:1 13980:1 24046:1 7399:1 16168:1
24499:1 20019:1 3726:1 24547:1
2956:1 25788:1 8133:1 28355:1 877:1 2483:1 3720:1
12389:1 12797:1 15871:1
7654:1 4441:1 21893:1 27697:1 23037:1 18674:1
5032:1 12471:1 15393:1 14265:1 9856:1
10014:1 20718:1
10694:1 21407:1
24499:1 16871:1 27272:1 4266:1 9378:1
26952:1 2075:1 1074:1 5928:1 14281:1
21698:1 10742:1 8698:1
3775:1 20258:1 8531:1 6308:1 1506:1 24459:1
16485:1 21789:1
649:1 921:1 25945:1 17110:1 19774:1 24891:1
1757:1 3691:1 5143:1 16374:1 28375:1 12124:1 220:1
9769:1 22114:1
17241:1 9756:1 1204:1
24301:3 24499:1 24459:1 24987:1
10444:1 21482:1 6740:1 7348:1
8284:1 16289:1 16013:1
27946:1 13419:1 3000:1 11171:1
7599:1 1339:1 25094:1
2772:1 1283:1
13113:1 8898:1 10444:1 7717:1 12134:1 9087:1 18942:1
15742:1 12699:1 3572:1 5553:1 9229:1 27194:1
5566:1 24499:1 18220:1 17166:1 1166:1
23705:1 15179:1
11790:1 23120:1
23153:1 11619:1 6975:1 16155:1 26518:1 16015:1
27987:1 25871:1 28122:1 16374:1 7775:1 21586:1 26703:1 16543:1 5299:1 220:1
11728:1 13172:1
3569:1 962:1 23984:1 24337:1
25891:1 11619:1 11022:1
20162:1 4255:1 24244:1
22258:1 13502:1
12940:1 9479:1 18388:1 24289:1 10444:1 220:1 25505:1
11978:1 10970:1 11022:1 18388:1
6955:1 7585:1 5300:1 20162:1 12471:1 14828:1
13744:1 16294:1 27550:1 4545:1 27733:1 24499:1
2781:1 8698:1 5954:1 14854:1
13188:1 11815:1
8219:1 6689:1
24046:1 24394:1
110:1 5510:1 13046:1 11022:1 17341:1
4119:1 16200:1 16945:1
14035:1 15802:1
10810:1 11619:1 18388:1 23037:1 15432:1 22567:1 27086:1
22637:1 18234:1 8685:1 22676:1 26217:1 27599:1 7546:1
21048:1 11865:1
28411:1 4439:1
5322:1 324:1 3186:1 13926:1 28094:1 4444:1 23295:1 939:1 17303:1 27697:1 677:1 220:1
15616:1 12471:1 220:1 17425:1
26843:1 20281:1 2391:1 3484:1 8741:1 9909:1 27520:1
28355:1 16484:1
12471:1 16681:1 17807:1 13478:1 28177:1
24499:1 6111:1 8357:1 16671:1 25039:1 4032:1 9087:1 220:1
26015:1 981:1
19412:1 12471:1 17424:1 10063:1 23020:1 13790:1
12373:1 12471:1 16374:1 11478:1 21154:1 220:1
12471:2 3589:1 4693:1 9594:1 22605:1 17061:1 220:1 17664:1
14931:1 13886:1 2197:1 14310:1
15452:1 12471:1 27420:1 14064:1
18828:1 25219:1
15247:1 20992:1 12471:1 16334:1 5626:1 26508:1 18369:1
28109:1 25801:1 3466:1 22439:1 16472:1 3572:1 25890:1 220:1 1531:1
10444:1 20718:1
14343:1 1280:1 23153:1 220:1 1057:1
24529:1 24499:1
8081:1 5198:1 25180:1 22722:1 4847:1
21212:2 12471:2 27782:1 17141:1
28355:1 18876:1 18790:1
25633:1 220:1 1240:1 7315:1 9509:1 7748:1 1260:1
24413:1 22737:1 23118:1 21613:1 24499:1 8804:1
1297:1 28359:1 27874:1 5449:1 18674:1 17225:1
21174:1 12471:1 11022:1 28781:1
25695:1 18081:1 21151:1 10444:1 1499:1
6301:1 25094:1 6309:1 1283:1
26202:1 1920:1
5671:1 11488:1
7195:1 10063:1 26819:1
13800:1 24031:1 129:1 13573:1
20354:1 3720:1
563:1 27864:1 28136:1
5903:1 2143:1 4853:1 7234:1 21547:1 9908:1 16975:1
13980:1 12471:1 18882:1 27470:1
25406:1 24301:1 27360:1 9814:1 21772:1 15274:1 10444:1 16642:1 220:1 1616:1
17317:1 5286:1 4163:1
10625:1 18265:1 7574:1 16015:1 24722:1
16485:1 21789:1
21935:1 7397:1 220:1 25802:1
16522:1 1824:1 17144:1 26832:1 21972:1
27382:1 28110:1 1338:1
9772:1 26094:1 10147:1 11746:1
12085:1 18388:1
13089:1 25301:1 2399:1 13377:1 14550:1 22084:1 17876:1 17382:1
7112:1 15741:1 11171:1 27759:1 26580:1 26834:1 8639:1 220:1
15742:1 8548:1 12471:1 11109:1 12651:1
16827:1 5567:1 2341:1 13946:1 16666:1 10536:1 24499:1
6773:1 21963:1 2794:1 7580:1
26276:1 19911:1 220:1
25089:1 7936:1
23198:1 11619:1 24988:1 18876:1 13926:1 9083:1 28624:1
23519:1 28519:1
19483:1 25319:1 19153:1 24499:1 24459:1
17710:1 14699:1 7400:1
16487:1 13993:1
27086:1 108:1 15432:1 10444:1 7348:1 4875:1 11043:1 220:1 9756:1
27086:1 10810:1 18388:1 15432:1
6960:1 7195:1 267:1 10063:1 20718:1
27970:1 28325:1 23455:1 6528:1 4939:1 5984:1 22248:1 1296:1 220:1 16414:1
8591:1 19305:1 3744:1 220:1 23606:1
18696:1 11769:1
25868:1 6105:1 19716:1 494:1 15561:1
6093:1 25600:1 17772:1 20053:1 8943:1
6000:1 19305:1
21314:1 21456:1
1094:1 15442:1 5982:1
22161:1 24413:1 12471:1 26478:1 24046:1 5992:1 14886:1
643:1 12852:1 10925:1 220:1
25123:1 12698:1 16382:1 220:1
15974:1 14625:1 22746:1 11619:1 23513:1 24046:1 10444:1
3864:1 813:1
23849:1 28015:1 10810:1 11042:1
26363:1 21265:1
22936:1 18220:1 8189:1
14684:1 18828:1
13554:1 4149:1 20841:1
9452:1 686:1 12471:3 21275:1 11239:1 16473:1 22999:1 21929:1 220:1
5077:1 2040:1
14343:1 24499:1 11619:1 8784:1
20141:1 3569:1 2772:1
11619:1 2579:1 1430:1 4939:1 16736:1 8681:1 25010:1 9166:1
2583:1 14401:1
21879:1 127:1 20736:1 21274:1 23404:1 4444:1 220:1 4266:1
5385:1 24345:1 28109:1 24863:1 3572:1 11868:1 17419:1 18473:1 28525:1 220:1 14077:1
8219:1 6689:1
27515:1 6879:1 17036:1 24301:3 14344:1
20378:1 1291:1 17600:1 25397:1 6396:1 26750:1 25319:1 24499:1 220:1 27420:1
9513:1 3441:1
22049:1 26193:1 2197:1 26910:1 7728:1
12584:1 23302:1 12498:1
21274:1 12852:1 9595:1
15338:1 8582:1 263:1 28375:1 11408:1 6740:1 15836:1
23890:1 19225:1 17425:1 397:1 220:1 14507:1
22527:1 20231:1 693:1 7113:1 13046:1 17452:1 24499:1 220:1
9179:1 20207:1
7988:1 9649:1 129:1 13308:1 25010:2 220:1
7412:1 15326:1 16400:1 3720:1 25890:1 15622:1
26109:1 9096:1
17486:1 4765:1 15095:1 17110:1 25010:1 220:1 3720:1
3847:1 14793:1 3572:1 220:1
19614:1 10444:1 18050:1 220:1
21980:1 24422:1 12471:2 3572:1 220:1
15549:1 26265:1
4434:1 10310:1 23407:1 16984:1 25786:1
5250:1 25256:1 8146:1
5024:1 9313:1
18674:1 17092:1
14343:1 12471:1 20437:1 19225:1 16042:1 22091:1 24499:1 220:1 8863:1
1302:1 3992:1 5613:1 220:1 3667:1
14587:1 16681:1 7067:1 6396:1 17730:1
1419:1 5179:1 12584:1 4444:1
817:1 781:1 3589:1 24623:1 28558:1 4765:1 10444:1 11895:1
7256:1 28430:1 11953:1
307:1 1723:1 27241:1
12227:1 14714:1 20936:1 9533:1
18630:1 12471:1 28359:1 26779:1 24499:2 10444:1 20629:1 15869:1
16827:1 7348:1 672:1 28116:1 12002:1
13663:1 8959:1 10186:1 11386:1 13133:2 12471:1 13744:1 19924:1 11619:1 4163:2 23967:1 24499:1 9595:1 220:1
21610:1 24499:1 11865:1
25105:1 26267:1 25010:1 7006:1 2814:1 26367:1 28676:1 220:1 27450:1
8133:1 11321:1 891:1 5117:1 16567:1 220:1 3572:1
19564:1 21168:1 24465:1
13133:1 27900:1 1819:1 220:1 23841:1
12149:1 16154:1 2512:1
8527:1 12471:1 19105:1 22885:1 14068:1 21121:1 21493:1 1493:1 220:1
11639:1 1401:1
7648:1 3572:1 13967:1 17514:1 220:1 7748:1 23930:1
18400:1 5256:1 16452:1 6763:1 22034:1 2747:1 5007:1 13641:1
26748:1 14409:1 25082:1 4643:1 11345:1
15630:1 23721:1 23407:1 18017:1 23343:1
28278:1 28109:1 3572:1 17379:1 21833:1 220:1
12560:1 26748:1 16154:1
5975:1 22847:1 17144:1 2297:1 24135:1
220:1 15804:1 25637:1 28676:1 18633:1 8319:1
13698:1 26:1 12373:1 12471:1 18170:1 8933:1 24499:1 220:1
19941:1 8400:1 9745:1 14956:1
494:1 17389:1 16864:1 80:1 3718:1 25811:1 4343:1 10433:1
13953:1 9594:1
10317:1 127:1 12471:1 13887:1 11896:1 23037:1 19552:1 24499:1 4444:1 220:1 4266:1
23018:1 3572:1 4394:1 10542:1 6326:1 220:1
10990:1 4266:1 12640:1
5786:1 2471:1 20475:1
10517:1 4291:1 939:1 19175:1 24762:1 15622:1
2679:1 7740:1 3859:1
24459:1 3572:1 13482:1 24344:1 220:1 28257:1
942:1 1074:1 891:1 220:1 388:1
127:1 4242:1 3572:1 7216:1 2015:1 12471:1 220:1
22627:1 19751:1
13527:1 25871:1
7748:1 1297:1 6528:1 6745:1 24499:1 3063:1 9509:1 18935:1 22394:1
28325:1 25879:1 1296:1 27599:1 220:1
24184:1 24529:1 12471:2 6649:1 25871:1 10369:1 24499:1 8653:1 220:1
3027:1 25333:1 11619:1 19814:1 27982:1 5198:1 24499:1 8857:1 220:1 7348:1
13393:1 683:1 16117:1
15866:1 12797:1 25890:1 11942:1
3090:1 23616:1
11719:1 13199:1 16553:1 20082:1
14644:1 23253:1 16338:1 11080:1 18881:1
1408:1 12471:1 17476:1 11619:1 12564:1
2650:1 4415:1 17710:1 17064:1 23633:1 23837:1 19159:1 10444:1 25059:1
8457:1 2127:1 7438:1 16797:1 1297:1 24499:1 7830:1
23160:1 11882:1 20736:1 7728:1 9899:1 5198:1 23705:1
16485:1 21789:1
7087:1 220:1 28109:1 15386:1 111:1 22158:1 16374:1 3572:1 3608:1 10479:1
20486:1 14409:1 3720:1
24301:3 11274:1 3889:1 15465:1
16339:1 28109:1 3572:1 16072:1 25916:1 25600:1 22323:1 220:1
26379:1 10444:1 11853:1 27973:1 12471:1 220:1 20497:1 4163:1 18276:1 27130:1 9783:1 1938:1
5829:1 3385:1 4861:1
3886:1 12846:1 12471:1 20194:1 20082:1 28634:1 17110:1 24499:1 220:1 20807:1
8160:1 19850:1 21149:1
21812:1 4576:1
1297:1 19440:1 7348:1
2843:1 27252:1 4856:1
12471:1 4152:1 4163:1 21121:1 11405:1 10444:1 22206:1
26786:1 9850:1 21539:1 7716:1 16080:1 21701:1 917:1 25334:1
27198:1 18081:1 11022:1
18186:1 686:1 26363:1 25761:1 4939:1 22971:2 13926:1 6638:1
6170:1 9371:1 18170:1
14020:1 19959:1 20529:1 3049:1
16155:1 12645:1
14903:1 26098:1 9271:1
26107:1 12471:1 21135:1 1605:1 17468:1 15616:1 13843:1 15237:1 13536:1 25547:1
8193:1 8525:1 25010:1 28040:1 27850:1 3092:1 18095:1
18018:1 6242:1
127:1 18281:1 9817:1 16681:1 16954:1 4444:1 220:1 19231:1
5797:1 18702:1 24074:1 22414:1 17241:1 10444:1 220:1 23302:1
23242:1 1699:1
23524:1 14556:1 24499:1 10444:1 15559:1
25319:1 26518:1 8639:1 15418:1
127:1 24861:1 4163:1 20840:1 9063:1 4444:1 220:1 10822:1
21159:1 6170:1 10444:1 21525:1 24465:1
12390:1 2126:1
18759:1 22869:1 15802:1 1040:1 17342:1 21613:1 24499:1
15575:1 23013:1 1297:1 13092:1 4195:1
23705:1 13693:1 12193:1
1659:1 13632:1 14906:1 12471:1
5412:1 26748:1 17667:1 7412:1 7748:1 5610:1 10113:1 14699:1 19151:1 220:1 3572:1
12471:1 17812:1 15432:2 342:1 27623:1 7720:1 17419:1 27086:2
21740:1 6242:1
20992:1 7688:1
23153:1 22992:1 3309:1 3075:1 16671:1 25637:1
26689:1 10955:1
28022:1 25600:1 11868:1
9498:1 258:1 23436:1 10191:1 16945:1 7348:1
25871:1 25589:1 23436:1 4765:1
17275:1 12819:1 13191:1
16687:1 20432:1
28372:1 9998:1 15386:1 3572:1 673:1 23193:1 6621:1 220:1
18191:1 10156:1 23242:1 7639:2 12658:1 25890:1 220:1
12471:1 21670:1 28377:1 23282:1 6633:1 1442:1 3572:1
13612:1 9057:1 3060:1
28109:1 18244:1 475:1 11953:1
1723:1 22721:1 19179:1 25591:1
13373:1 11022:1 891:1 25409:1 16155:1 13926:1 5152:1
13772:1 23008:1 11012:1 19924:1 220:1
3027:1 12471:1 27906:1 26085:1 21186:1 25010:1 20727:1 220:1
3280:1 24301:3 12264:1 11619:1 4540:1
21661:1 16445:1 20254:1 24126:1 3868:1 20874:1 10444:1 13926:2 25465:1
5457:1 26953:1 17517:1 3589:1 7234:1
14106:1 25600:1 12217:1 10577:1
14144:1 4441:1 3569:1 17947:1 8200:1 10828:1
28395:1 15729:1 24499:1 2327:1 25945:1
23043:1 26379:1 1417:1 25010:1 12011:1 220:1
4021:1 10105:1 18268:1 3572:1 19359:1 20162:1 27000:1 12471:1 220:1
17030:1 220:1
16485:1 21789:1
15805:1 4500:1
2223:2 10444:1 25006:1 16085:1 24982:1 22036:1 20207:2
25890:1 12471:1 2642:1 20736:1 5327:1 2015:1 25010:1 10444:1 24344:1 220:1 18608:2
7195:1 24046:1
7405:1 10810:1 25600:1
5567:1 24224:1 6908:1 2195:1 22024:1 220:1
5975:1 12471:2 19729:1 20518:1 18674:1 220:1 2121:1
27086:1 3396:1 19105:1 15432:1
14739:1 26447:1 21135:1 12471:1 25010:1 10444:1 3084:1 220:1 7348:1
14930:1 10544:1 21158:1 1166:1 26002:1 24499:1 15940:1 4266:1
25871:1 22291:1 26709:1 1775:1 22689:1 25246:1 647:1
27690:1 10551:1 23603:1
4163:1 10014:1 8356:1 13926:1 9605:1 3720:1
3358:1 17710:1 15602:1 2747:1 1727:1
3486:1 4875:1 12471:1 9716:1 9756:1 26464:1 1291:1 27623:1 22281:1 11043:1 220:1 7348:1
28027:1 15205:1 10014:1 3835:1 15997:1 14752:1 15579:1
7439:1 11792:1
20415:1 12920:2 8193:2 7432:2 13704:1 220:1
26305:1 11958:1 14281:1 23295:1 220:1 24953:1 20214:1 10444:1 13926:1 28094:1 15787:1
21860:1 24499:1 23812:1
780:1 13772:1 24499:1 10494:1
22296:1 28109:1 20940:1 26812:1 3572:1 8733:1 21613:1 17666:1 28161:1 220:1 13790:1
16485:1 21789:1
10893:1 13857:1 22604:1 220:1 1103:1
15806:1 7381:1
16485:1 21789:1
20162:1 5115:1 5300:1 14064:1
16632:1 12471:1
11758:1 1946:1
22244:1 1619:1 16681:1 12887:1
6130:1 12819:1
28395:1 22050:1 11171:1 14227:1 25600:1 6593:1 4834:1
27631:1 26363:1 12471:1 6292:1 22895:1 5720:1 10444:1 17302:1 4266:1
28027:1 18507:1 12471:2 3740:1 18114:1 13934:1 21482:1 11348:1 13394:1 16753:1 28696:1
19091:1 17184:1 4179:1 11953:1
3830:1 16200:1 19602:1 9908:1 220:1
21337:1 3569:1 17324:1 12049:1 220:1 15622:1
12471:1 18965:1 23118:1 23024:1 220:1 11374:1
22161:1 26748:1 6292:1 4163:1 24344:1 8959:1
23600:1 16015:1 13588:1 13186:1
20819:1 24301:1 17876:1 7717:1 25405:1 10444:1 18244:1 12471:2 16484:1 20874:1 13037:1 3510:1
8051:1 15729:1 4150:1 21713:1 9721:1
28027:1 24301:1 17425:1 20623:1 5327:1 28764:1 10444:1 28122:1 15309:1 4163:1 16374:1 15616:1 24499:1 220:1
10014:1 26363:1 22960:1
10147:1 12471:1 9745:1 654:1 14543:1 26181:1 388:1
14216:1 28109:1 12471:1 16159:1 3572:1 18447:1 14556:1 13926:1 28642:1 220:1
3569:1 1384:1 28748:1
14931:1 7188:1 3569:1 28149:1
16146:1 23343:1
13693:1 25251:1 21613:1 13926:1 26381:1 15836:1
15545:1 25689:1 12172:1 11724:1 3134:1 22855:1
3191:1 17710:1 15741:1 7716:1 9594:1 12286:1 19656:1 7348:1
24046:1 18882:1
21586:1 2015:1 1297:1 7092:1
6400:1 25256:1 1563:1
10444:1 5501:1 23373:1
21661:1 13199:1 26220:1 1655:1 16553:1
2223:1 11619:1 14861:1
4558:1 12471:1 1121:1 13887:1 5371:1 10672:1 25010:2 10444:1 12256:1 220:1 2253:1
21121:2 12471:1 26247:1 27230:1
19692:1 23040:1
6000:1 10597:1 25591:1 3572:1 4693:1 220:1 7158:1
4520:1 26117:1 15088:1 3678:1
10014:1 27822:1
12522:1 10349:1 28387:1 2253:1 3139:1 12471:2
22369:1 2525:1 1666:1 4266:1
240:1 13744:1 1040:1 20773:1
18682:1 6524:1 3071:1
27515:1 15280:1 24499:1 220:1
28295:1 14714:1 27420:1
27503:1 27261:1 12471:1 15802:1 20162:1 439:1 27425:1 24499:1 16155:1 20762:1
5948:1 23078:1 10444:1
13887:1 24499:1 23030:1 19924:1 22931:2 10753:1 17241:1 21252:1 220:1
23242:1 28380:1
5678:1 27946:1 25397:1
17825:1 1063:1
686:1 27135:1 3268:1 26618:1 14099:1 25010:1 16711:1 3504:1
28175:1 12465:1 4687:1 8219:1 20404:1 24499:1 7406:1
28027:1 25871:1 24459:1 24623:1 25732:1 24499:1 9509:1
26580:1 8639:1 22855:1
17990:1 9057:1
25871:1 27629:1 12471:1 20159:1 19468:1 6266:1 220:1 23841:1
12471:2 14046:1 12286:1 5485:1 19599:1 3569:1 21265:1 16155:1 13887:1
10479:1 22991:1
13515:1 12471:1 3349:1 15843:1 5586:1
7256:1 25871:1 20270:1 1297:1 27472:1 4861:1 24499:1 13926:1 19231:1
11882:1 8917:1 3572:1 2174:1 22848:1 23988:1 24499:1 220:1 28420:1
21436:1 24863:1 13632:1 4859:1 11520:1 2229:1
12906:1 3572:1 220:1 26481:1
7935:1 12471:1 6171:1 7343:1 1442:1 20421:1
12471:1 11619:1 4163:1 677:1 10444:1 22046:1 19001:1
1134:1 24997:1 13693:1 19450:1 2151:1
10014:3 24499:1 10329:2 1974:2
26758:1 12471:1 13092:1
22231:1 18186:1
7865:1 780:1
15253:1 3572:1 15427:1 24344:1 24499:1 220:1 11022:1
12471:1 21457:1 6292:1 2562:1 10780:1
28802:1 16346:1 12049:1 220:1
6818:1 686:1 24529:1 26267:1 22895:1 27103:1
3443:1 17834:1 24499:1 25010:1 25319:1 12000:1 12373:1 17061:1 26447:1
23920:1 3722:1 12471:1 16954:1 18988:1
27892:1 5823:1
23708:1 220:1
28641:1 1121:1 10482:1 7544:1 10444:1 16842:1 2541:1 220:1
5605:1 1040:1 2477:1 9060:1 10569:1 25010:1 13151:1
14343:1 1721:1 129:1
18842:1 2769:1 12471:1 25998:1
13733:1 21436:1
12373:1 19674:1 12218:1 220:1
22231:1 17270:1
17808:1 28528:1
1908:1 9408:1
791:1 11619:1 12193:1 22520:1 6309:1 6364:1
686:1 7861:1
9564:1 16708:1 297:1
1659:1 20281:1 25010:1 24459:1 27670:1 10444:1 24499:1 2872:1 3681:1 10873:1
18018:1 6242:1
9594:1 27330:1
24046:1 690:1
23743:1 11164:1
12471:1 10444:1 7311:1
16117:1 220:1
26267:1 25871:1 1311:1 3265:1
26363:1 16991:1 17541:1
8510:1 7896:1 11969:1
8917:1 23128:1 25473:1 22281:1
16330:1 5456:1
12471:1 3572:1 1275:1 8613:1 411:1 20207:1 220:1 8249:1
15297:1 25010:1 7820:1
21348:1 16681:1 4649:1 15031:1
17196:1 4939:1 18876:1 17241:1 24524:1 10312:1
1992:1 13655:1 20238:1 7879:1
25692:1 12544:1
2174:1 4149:1 3572:1 10283:2 13926:1 15116:1 24929:1 220:1 26382:1
769:1 11836:1 26718:1 8728:1 10105:1 21292:1
12471:3 3756:1 10694:1 14144:1 9772:1 17862:1 15997:1 4266:1
15055:1 24499:1 11619:1
20162:1 25890:1 5300:1 8133:1
25256:1 26478:1 10782:1 6552:1 13285:1 220:1 17765:1
26283:1 14515:1
21653:1 1240:1 21670:1 4693:1
1733:1 11566:1 24499:1 12445:1 22245:1 2562:1
21212:1 16798:1 12471:1 10254:1 15836:1
3280:1 16132:1
21935:1 10970:1 26190:1
686:1 10490:1 19596:1 21956:1 3569:1 3608:1 15622:1
11356:1 3361:1 18828:1 14064:1 27907:1 10191:1 220:1 14281:1
10869:1 27866:1 17419:1 422:1 14033:1 27733:1 220:1 9083:1
15729:1 23611:1 20217:1 9593:1 8681:1 20276:1 10444:1 220:1
8705:1 5740:1 22158:1 18220:1 28781:1 5908:1
1659:1 24301:3 20009:1 11189:1 10444:1
4619:1 24863:1 24772:1 13926:1 14077:1 220:1
13212:1 5645:1 11751:1 18848:1 28109:1 13196:1 2121:1
8068:1 13695:1
69:1 28523:1 14303:1 26635:1 9756:1 220:1
4581:1 1253:1 10482:1 4975:1
10929:1 15297:1 23298:1
748:1 9660:1 6698:1 15432:1 20683:1 10444:1 27086:1 7401:1 20203:1 10236:1 24499:1 18220:1 27769:1 220:1
28027:1 10873:1 25010:1 21130:1 7392:1 7234:1 24499:2 10954:1 23022:1
3249:1 204:1 24180:1
22096:1 25532:1 3066:1
220:1 1935:1
25732:1 18606:1 18261:1 6720:1 220:1
25600:1 700:1 7400:1
25600:1 10444:1 25256:1
15742:1 21274:1 12471:1 20162:1 27946:1 10444:1
25871:1 14409:1 26867:1 6292:1 24344:1 24499:1 4427:1 6326:1 1655:1
5456:1 27081:1 26247:1 11619:1 20242:1
24878:1 23378:1 3572:1 11868:1 27463:1 220:1 1946:1
13254:1 220:1
8705:1 13522:1 12471:1 28781:1
28621:1 15921:1 12658:1 15815:1 25267:1 4266:1
7599:1 18388:1 21186:1 23598:1 15432:1 27086:1
26758:1 5790:1 12471:1 3466:1 220:1 3519:1 4032:1 26442:1
7195:1 24046:1 18882:1 24394:1 690:1
14343:1 9594:1 20683:1 15039:1 14735:1
15014:1 17037:1
5327:1 494:1 8721:1
20992:1 16554:1
220:1 28781:1 26882:1
22291:1 6000:1 3572:1 7090:1 5259:1 8983:1 24499:1 17275:1 11792:1 220:1 5823:1
680:1 25010:1 11619:1 14854:1
25833:1 3963:1 18300:1 16050:1
11171:1 27733:1 15255:1
439:1 21127:1 14052:1
26052:1 12852:1 4939:1 3396:1 17200:1 8295:1 28634:1 20281:1
11235:1 583:1 18608:1 7321:1 4693:1 17641:1 5626:1 26136:1
26932:1 22244:1 11619:1 23837:1 7939:1 4266:1
27120:1 3105:1 24499:1 23837:1 4032:1 26193:1 16554:1 14884:1 220:1
16485:1 21789:1
25871:1 12471:1 3294:1 25010:1 12286:1 3411:1 13926:1 22418:1
11882:1 10873:1 24508:1 23242:1 15843:1 3105:1 21586:1 24499:1 14160:1 11218:1 220:1
12544:1 3589:1
23361:1 2197:1 6573:1 2121:1 25708:1
9452:1 23750:1 19817:1 2232:1 9324:1 594:1 220:1 5017:1
24499:1 12471:1 6935:1 13588:1 11619:1
12471:1 9809:1 19989:1 5132:1 24499:1 220:1 26303:1
3610:1 10734:1 12471:2 26648:1 3589:1 22231:1 13632:1 220:1 14833:1
8155:1 837:1 16553:1
2197:1 15782:1 10444:1 13926:1 28094:1 16015:2 12471:1 24361:1 4939:1 23295:1 16155:1 220:1
17502:1 12471:1 1297:1 3572:1 4474:1 5300:1 1291:1 5376:1 25010:1 220:2 7348:1
26933:1 26191:1
22333:1 20307:1 3572:1 159:1 25367:1 21675:1 220:1
3404:1 4149:1 17871:1 14134:1 23598:1 22141:1 27194:1 5452:1
15101:1 7348:1 7621:1 3504:1 2209:1 25094:1 2738:1 19122:1 18907:1 446:1 1166:1 24793:1 12471:1 7660:1 6482:1 8712:1 4149:1 24499:1 847:1 2174:1 28359:1
11171:1 23708:1
220:1 23218:1 7412:1 17212:1 10471:1
693:1 18608:1 13046:1 16894:1 2701:1 11443:1 12471:1
8276:1 8133:1 23902:1
11619:1 1166:1 3186:1 11408:1 1723:1 21501:1 13887:1
9513:1 3441:1
15705:1 12637:1 12471:1 4939:1 19959:1 15243:1 22418:1
11845:1 1477:1
11620:1 17812:1 18216:1
3385:1 16588:1 4576:1 22422:1 6930:1 7587:1 1142:1 25010:1 220:1 3572:1
13406:1 4666:1
24529:1 17425:1 11619:1 686:1 22895:1 24499:1
24046:1 19999:1
28040:1 4847:1 27965:1 9595:1 25022:1 23037:1
686:1 16740:1 10444:1 23939:1 13926:1 1297:1
23738:2 9595:1 12471:1 16098:1 16200:1
16485:1 21789:1
25319:1 3894:1 17834:1 25890:1
8748:1 28325:1 25591:1 8804:1 1258:1 24499:1 1296:1 220:1
25010:1 129:1
18399:1 20912:1 12471:1 2822:1 28434:1 25600:1 14089:1
23681:1 16025:1 771:1 4163:1 23967:1 12471:2 18354:1 220:1 27017:1
15961:1 2223:1 220:1
13287:1 9359:1 10944:1 220:1 25802:1
5064:1 172:1 16712:1 15432:1 20162:1 5300:1 21265:2 27086:1 220:1 18691:1
12471:1 21549:1 8733:1 22410:1 25195:1
26867:1 6923:1 11865:1 24987:1 10929:1 1522:1 3681:1 220:1
25319:1 25010:1 12316:1 2209:1 21586:1 18431:1 220:1 3720:1
14406:1 13317:1 17275:1 28522:1
3416:1 20333:1
13522:1 20629:1 9746:1 11619:1
342:1 25319:1 4558:1 24459:1 220:1
3771:1 24615:1 12471:1 18114:1 16500:1 3186:1 10517:1 10444:1
23945:1 10444:1 14826:1 7935:1 21673:1 9479:1 11674:1 21121:1 7110:1 24499:1 220:1 17666:1
20162:1 3579:1 20731:1 13664:1
3027:1 12471:1 16689:1 11689:1 19572:1 25097:1
24381:1 14926:1 16050:1 19761:1 1074:1 10444:1 220:1 11022:1
17687:1 7713:1 19001:1
15836:1 22855:1 11868:1
14343:1 686:1 3572:1 28015:1 16872:1 22394:1 21075:1 28624:1 220:2 9371:1
12807:1 18402:1 17317:1 11619:1 15465:1 4939:1 22258:1 3569:1 5878:1 2121:1 25547:1
2209:1 27194:1 220:1 581:1
26857:1 5115:1
2197:1 11703:1 2642:1 23837:1 12276:1 25619:1 6733:1
13113:1 8400:1 7649:1 21433:1 7759:1
2781:1 21879:1 12471:1 9836:1 381:1 26461:1 8302:1 5198:1 18674:1 28705:1 24180:1
28027:1 20490:1 8866:1 19596:1 23323:1 12384:1 2801:1 220:1
20736:1 24499:1 3720:1
24982:1 16452:1 25193:1 24659:1 220:1 24499:2 12049:1 24745:1 17243:1
1708:1 12471:1
16374:1 25692:1 5284:1
21274:1 24899:1 27904:1 25502:1 11691:1 13887:1
21613:1 26953:1 3589:1
14160:1 24301:3 13733:1 22291:1 9948:1
15836:1 16484:1
8872:1 9323:1 14106:1 4861:1 24834:1 15836:1
21897:1 6368:1 10444:1 22855:1 12402:1
15297:1 768:1 3525:1 24838:1 8968:1 1938:1
3868:1 2769:1 24379:1 220:1 28634:1
1596:1 21985:1 25010:1 1297:1 5833:1 4939:1 5201:1 9875:1 24499:1 12471:2 220:1
12544:1 3589:1
3572:1 13037:1 4810:1 22567:1 220:1 25550:1
27521:1 10286:1 28763:1
6565:1 24508:1 23884:1 14457:1 6163:1 9352:1 1287:1 7376:1
20162:1 5221:1 12471:1 5300:1 15062:1
12148:1 25788:1 2660:1 3046:1 1600:1 27615:1 5449:1 19911:1 12783:1
25162:1 24499:1
2107:1 19113:1
2015:1 220:1 11273:1
16485:1 21789:1
6923:1 8510:1 12980:1 220:1 14270:1
21670:1 3572:1 220:1 13857:1
3099:1 11114:1
13527:1 25871:1 24499:1 28487:1 220:1
9594:1 18532:1
14946:1 23204:1 23037:1 24302:1
17664:1 15779:1
14729:1 5176:1
25236:1 12471:1 13533:1 13482:1 20194:1 5198:1
3738:1 14729:1
20814:1 28250:1 11428:1 10873:1 28764:1
21704:1 127:1 19959:1 12471:1 5620:1 560:1 10444:1 4444:1 220:1 17317:1
3361:1 12471:1 9323:1 13456:1 2015:1 27123:1
25871:1 23219:1 7502:1 24344:1 15729:1 12471:1 5371:1 26700:1 21121:1 14518:1 19165:1 220:1
22808:1 27236:1 24829:1 326:1
686:1 12852:1 18388:1 21186:1 15432:1 27086:1
20020:1 23239:1 220:1 12448:1
28122:1 1297:1 21670:1 22258:1 16374:1 1419:1 837:1 10873:1
14997:1 19811:1
10451:1 10901:1 20153:1 28281:1 24499:1 21499:1 8169:1
17700:1 18430:1 18000:1 22250:1 27056:1 18793:1 12471:1 220:1
5485:1 9677:1 422:1 28395:1
7865:1 16339:1 220:1 3753:1
2038:1 10490:1 3265:1 22531:1 2370:1 4150:1 24728:1 220:1 4266:1
8165:1 204:1 12471:1 15286:1
21831:1 19165:1 2642:1
16178:1 25010:1 1297:2 4939:1 15077:1 24499:1 12471:1 220:1
1297:1 19994:1 11022:1
9187:1 12564:1 21121:1
28355:1 8295:1 9614:1
8356:1 12717:1
24236:1 8172:1 11619:1 2677:1 5457:1 220:1 14826:1
14277:1 3204:1 17420:1
8193:1 1297:1 3648:1 14467:1
22245:1 12872:1 12471:2 23242:1 20998:1 16912:1 10014:1 1974:1 220:1
28109:1 8628:1 3572:1 17325:1 17836:1 220:1 12049:1
26604:1 22258:1 3919:1 490:1 10652:1
6561:1 24499:1 10587:1 28487:1
2214:1 8169:1 19564:1
23803:1 6975:1
5368:1 15434:1 12471:1 6396:1 3572:1 8246:1 11209:1 220:1 5823:1
12471:1 23096:1 95:1 4939:1 8646:1
27086:1 8010:2 17812:1 15432:1
17561:1 2197:1
18558:1 8205:1
8989:1 23242:1
22510:1 12471:2 21678:1 16352:1 891:1
2331:1 26910:1 14549:1 8150:1 16681:1 6302:1 12629:1
28395:1 5602:1 6368:1 22484:1 4369:1 16015:1 26619:1
6130:1 6302:1 17033:1 19596:1
3610:1 12471:1 3589:1 13482:1 14391:1 27103:1 9639:1 20706:1 220:1
12445:1 22245:1 2562:1
10491:1 3990:1 23327:1 18306:1 26425:1 6005:1
18186:1 28679:1
24301:3 1339:1 22855:1
14946:1 17572:1 6698:1 4643:1
15297:1 2858:1 3572:1 19151:1 13926:1 220:1
7781:1 1297:1
996:1 2215:1 6923:1 4163:1 27112:1 13926:1 771:1
25007:1 20490:1
13887:1 10444:1 18702:1 23242:1 7412:1 3300:1 24728:1 13926:1 11218:1 220:1 27599:1
16339:1 12471:1 21121:1 12443:1 1253:1 9668:1
18511:1 8449:1 23750:1 18328:1 13172:1 220:1 26903:1
21740:1 6242:1
18306:1 14503:1 3720:1
2579:1 27729:1 751:1 12471:1 2659:1
13388:1 19165:1
1253:1 20404:1 25010:1 10873:1 24880:1
28216:1 21493:1 2562:1
12471:2 6482:1 11406:1 13276:1 22746:1 10067:1 2305:1
5499:1 5602:2 14792:1
28173:1 17812:1 2471:1 26205:1 220:1 26811:1
14552:1 3758:1 5740:1 13641:1
13772:1 9028:1
6377:1 10849:1 28676:1
14684:1 14689:1 11114:1
21896:1 10310:1 20281:1
25916:1 6923:1 5981:1 11619:1 3868:1 3569:1
6292:1 22206:1 4779:1 2223:1
27253:1 27855:1 18674:1 24499:1 24176:1 25308:1
16485:1 21789:1
17884:1 4867:1 4757:1 19675:1 13908:1 22109:1 5266:1 26804:1 220:1 19924:1
18761:1 25035:1 2475:1 9911:1
17275:1 13887:1 24768:1
4969:1 21932:1
21586:1 18431:1
7348:1 15997:1 8133:1 17073:1 24655:1
14068:1 23738:1
16055:1 16740:1 14081:1 1297:1
14343:1 15452:1 19651:1 16155:1
51:1 12471:1 20207:1 18186:1 12506:1 422:1 15786:1 15997:1 14252:1 220:1
15622:1 16017:1 4238:1 4273:1
25700:1 5703:1 21013:1
10207:1 4939:1 5712:1 2331:1 13379:1 24499:1
3361:1 3572:1 1002:1 21916:1 13287:1 24946:1 2450:1 28109:1 220:1 20712:1
6682:1 24459:1 11997:1 27973:1 220:1 18328:1
10444:1 6963:1 17884:1
25871:1 18674:1 20976:1
24344:1 16096:1
25010:1 129:1
24499:1 19902:1
9530:1 12940:1 18026:1 25812:1 26604:1 11559:1 16802:1 24499:1 10444:2 4444:1
22869:1 6468:1 22451:1 22463:1 16391:1 13571:1
21334:1 6814:1 12471:1 23292:1 4649:1 22945:1 11907:1
5561:1 1855:1 10444:1 4259:1
9772:1 326:1
24499:1 17730:1 3105:1 4423:1 10444:1 9190:1 4415:1 12471:1 1563:1 26827:1 220:1 7735:1
38:1 19256:1 13046:1 15432:1 11104:1 14199:1 12471:3 27086:1
14343:1 9043:1
14303:1 24499:1 6396:1
424:1 11939:1 8039:1 14033:1 25256:1 7348:1
2769:1 11573:1
12489:1 14715:1 2121:1 25945:1 12311:1 220:1
24499:1 23018:1 20242:1
9513:1 3441:1
6681:1 24499:1 14771:1 220:1
1142:1 13290:1
6611:1 6596:1 4163:1 9187:1 23967:1 16554:1 21881:1 10373:1 220:1 11022:1
3027:1 49:1 10209:1
28104:1 12471:1 6559:1 13926:1 25890:1 21675:1
8240:1 15742:1 24615:1 25010:1 14473:1
1297:1 16063:1 1071:1 27103:1 12135:1
1992:1 15517:1 5954:1 24499:1 10444:1 21569:1 220:1
21364:1 4765:1 25010:1 3305:1 847:1
7088:1 8878:1 17350:1 11349:1
9225:1 25786:1 6367:1 1586:1
18393:1 25788:1 12471:1 3105:2 19569:1 1338:1
10764:1 3532:1
5631:1 20718:1 18869:1
13490:1 24236:1 12471:1 15741:1 13599:1 5099:1 4297:1 16338:1 220:2
28621:1 19126:1 4628:1
21879:1 2642:1 20736:1 25890:1 22446:1
6213:1 24621:1 3466:1 18659:1
12912:1 23242:1 25644:1 13054:1 2954:1 28781:1 24180:1
16485:1 21789:1
24944:1 12964:1 18484:1
10615:1 25030:1 220:1 2197:1
10620:1 26928:1 5968:1
13067:1 15802:1
15253:1 1313:1
1682:1 26267:1 26363:1 25010:1 20511:1
7639:2 28404:1 10329:1 12011:1 220:1
11620:1 12471:1 17690:1 17812:1 5164:1 15432:1 26187:1 28781:1 27086:1
11547:1 2121:1 27813:1 3777:1 11245:1 220:1 4266:1
490:1 17834:1 2522:1 12471:1
22234:1 6941:1 4163:1 23967:1 23841:1 16241:1 4238:1
4850:1 27655:1
200:1 27910:1 20207:1
6371:1 23132:1 17666:1 7748:1 20546:1
3868:1 1339:1 10444:1 20068:1
10673:1 25473:1 28112:1 3569:1 28109:1 220:1 3572:1
27382:1 26806:1 10329:1
21586:1 11022:1 11218:1 220:1 23242:1
706:1 563:1 6159:1 3475:1 491:1 1623:1
10618:1 10443:1
15729:1 21713:1
13942:1 7234:1 10873:1 20235:1
25600:1 6111:1 21100:1
20162:1 15386:1 5300:1 16555:1 7639:1 24499:1 220:1
17149:1 2121:1 28188:1
15549:1 11619:1 7348:1
17713:1 19596:1
15562:1 22535:1 27591:1
25331:1 42:1 13926:1 8946:1
5790:1 17033:1 5505:1
22511:1 26625:1 1313:1 13951:1 10259:1 4643:1 220:1 3572:1
10014:1 26363:1 12471:1 12152:1
21812:1 25118:1 24180:1
20707:1 13084:1 16916:1
23239:1 686:1 4332:1 16680:1 11619:1 21493:1 5862:1 19911:1 19109:1
5077:1 21493:1
16271:1 24465:1
19264:1 10833:1 19903:1
11171:1 23302:1 365:1
28027:1 28528:1 22323:1 4163:1 10444:1 3027:1 12471:5 11718:1 17808:2 1304:1 11348:1 771:1
5625:1 28377:1
19911:1 12614:1 24499:2 27352:1 23874:1
4065:1 321:1 4112:1
26163:1 2038:1 11022:1 15318:1 25891:1 220:1
8219:1 6689:1
7935:1 18674:1 16063:1 27946:1 220:1
24197:1 5681:1
25105:1 28395:1 8035:1 17963:1 24777:1
21121:1 23037:1
24499:1 23043:1 12263:1 17425:1
8356:1 23603:1 6771:1 24171:1 12471:1 16916:1 220:1 12667:1
21174:1 24838:1 2772:1 26648:1 3864:1 15461:1 27122:1 28399:1 26363:1 12471:2 8133:1 414:1 22508:1 24499:1 220:1 22808:1
14636:1 10810:1 220:1 9533:1
27650:1 28158:1 21436:1 4113:1 11619:1 20178:1 14930:1 220:1
20518:1 1297:1 16916:1 12279:1
20162:1 4989:1 13737:1 5504:1
24643:1 24529:2 22291:1 8008:1 12638:1 27644:1 1074:1
23682:1 17615:1
18876:1 7667:1 7939:1 12819:1 15452:1
25010:1 1723:1 4032:1 220:1 4693:1
4441:1 18674:1 20835:1
21547:1 16484:1
15063:1 13746:1 381:1 7309:1 7468:1 10444:1 24015:1 28522:1
5937:1 18233:1 6000:1 8675:1
18847:1 7935:1 12471:1 19422:1 8540:1 18793:1 16200:1 21825:1
782:1 7444:1 220:1 5826:1
17301:1 3027:1 25964:1 14281:1 12132:1 28457:1 15051:1 1297:1 21983:1 2244:1 220:1
23083:1 8402:1 22806:1 21482:1
21727:1 2652:1 220:1
14897:1 26404:1 1297:1 24459:1 24499:1 28716:1
18608:1 13046:1 8863:1 4757:1 17514:1 4462:1 95:1 220:1
17963:1 14112:1 12748:1
20088:1 17812:1 220:1 11643:1
3612:1 5625:1
12711:1 23071:1 28324:1 8930:1 18584:1 575:1 12471:1 24929:1 28307:1 1721:1 8913:1
27989:1 16554:1 18431:1 21586:1 21613:1 14739:1 10067:1 21687:1 12471:2 11589:1 220:1 27420:1
8356:1 4611:1 23864:1 14450:1
12471:1 14956:1 13922:1 11767:1 220:1 13146:1
18472:1 26793:1 11619:1 2936:1 17364:1 11865:1
18876:1 2015:1 20835:1 13693:1
14460:1 1776:1 12471:1 2370:1 3569:1 19959:1 11218:1
13367:1 13887:1 1375:1 16013:1 15697:1
24618:1 10444:1 19225:1 11689:1 19515:1 27706:1 4352:1 220:1
5807:1 23111:1 23064:1
22336:1 10444:1 18388:1 18220:1 10096:1 25863:1 220:1
9522:1 21234:1 1297:1 4310:1 436:1
28109:1 16050:1 8125:1 24623:1 837:1 9218:1 19411:1
599:1 12471:2 25822:1 10103:1 19959:1 10444:1 2074:1
18239:1 28027:1 6972:1 9418:1 21881:1 19771:1 4875:1 6740:1
1976:1 16154:1 4473:1 24499:1 16015:1 28522:1
8560:1 23011:1 15218:1
7454:1 1903:1
19187:1 332:1 4238:1 5880:1
5499:1 24499:1 18261:1 12783:1 8205:1
16339:1 26748:1 10640:1 12471:1 1061:1 25689:1 14220:1
7532:1 25600:1 20396:1
8170:1 14258:1
11171:1 27520:1 2121:1 13377:1
4016:1 20038:1 27615:1 4658:1 10189:1 10444:1 22206:1
14343:1 24301:1 2197:1 11703:1 220:1 23829:1 3906:1 10444:1 23837:1 11761:1 23242:1
23194:1 7110:1 12471:1 21932:1 11142:1
18698:1 12819:1
17475:1 7939:1 15452:1
4441:1 13504:1 28259:1 19527:1 10893:1 10444:2 11704:1 12235:1
8630:1 24499:1 12471:1 25187:1
26079:1 9371:1 22726:1
11790:1 28739:1 25010:1 10444:1 14847:1 9846:1 3710:1 24499:1 21169:1 7496:1 220:1
21879:1 12140:1 7680:1 17623:1 5077:1 27023:1 17632:1 18849:1 220:1
18399:1 22206:1 3720:1 27521:1
7542:1 12831:1 12471:1 15802:1 5625:1 20018:1 12658:1 853:1 1272:1
7195:1 298:1 11619:1
6818:1 686:1 24529:1 26267:1 22895:1 27103:1
25845:1 7191:1 11932:1 6975:1 1598:1 18613:1 25010:1 9783:1 2562:1
21702:1 25563:1 25690:1 15218:1 2192:1 20541:1 4599:1 220:1 5501:1
28360:1 422:1 4459:1
12471:1 28664:1 7348:1 4875:1 11043:1 220:1 9756:1
18226:1 220:1 28298:1 20010:1 23120:1 13486:1
28027:1 15741:1 3572:1 21056:1 21050:1 24499:1 10687:1 220:1 8133:1
7400:1 2847:1 220:1 4847:1
13440:1 10241:1 24499:1 24358:1 16646:1 4266:1
5688:1 27769:1 15779:1
13046:1 2642:1 18204:1 13945:1 15565:1 1563:1
9898:1 11385:1 17886:1
5247:1 13046:1 11190:1
8744:1 24790:1
6682:1 12471:1 13843:1 2409:1 601:1 1415:1 25369:1
21586:1 4918:1 6111:1 11619:1 220:1
24825:1 10694:1
7857:1 15237:1 5795:1 13388:1 24499:1 12057:1 25574:1 9083:1
3868:1 12214:1 13522:1 16567:1
12471:3 3756:1 10694:1 14144:1 9772:1 17862:1 15997:1 220:1 4266:1
12182:1 28460:1 3405:1 5678:1 326:1 21586:1 220:1
3226:1 21017:1
17710:1 7861:1 3589:1 12964:1 4693:1 24499:1 220:1
8120:1 20158:1 23608:2 9783:1
12471:1 14276:1 7808:1 19674:1 220:1 19702:1
25312:1 12471:1 16802:1 946:1 21613:1 7972:1 8169:1 19305:1
15308:1 25220:1
12384:1 13733:1 18308:1 28777:1 22091:1 3519:1 11836:1
2276:1 26933:1 25945:1 4745:1 12399:1 21340:1
25130:1 5456:1 22206:1 11022:1 26799:1
169:1 9435:1 13887:1 23395:1
13199:1 3590:1 26518:1 13300:1 27398:1 2114:1
26568:1 27729:1 15488:1 11619:1 23909:1 19433:1 19151:1 13887:1
21571:1 6503:1 19225:1 21670:1 1442:1 10444:1 16916:1 220:1
20084:1 16155:1 647:1
16485:1 21789:1
686:1 3572:1 12:1 24977:1 220:1 9166:1
5095:1 12471:1 2223:1 12443:1 9352:1 26443:1 220:1
23277:1 6792:1 2366:1
28109:1 12471:1 14218:1 21539:1 21443:1 14946:1 18220:1 220:1 3589:1
25105:1 16269:1 21713:1 21954:1 1864:1 560:1 220:1
26351:1 15948:1 18186:1 24173:1
10587:1 17034:1 8959:1 587:1 4163:1
11482:1 10810:1 12471:1 12460:1 21186:1 1419:1 220:1
3052:1 14833:1
4266:1 17243:1 15843:1 28745:1 5788:1 24499:1 10443:1 220:1 9756:1
17092:1 26953:1
15632:1 2197:1 1002:1
14248:1 11896:1 15920:1 25319:1 21896:1 24499:1 16553:1 220:1
20214:1 4065:1 27650:1 2430:1 21665:1
17241:1 19911:1
4295:1 15432:1 25521:1 4847:1 21956:1 11579:1 18202:1 220:1 27086:1
3453:1 4939:1 25010:1
23179:1 19602:1 25689:1 16671:1 13794:1 6895:1
28156:1 21234:1
13046:1 20736:1 25477:1 3991:1 21613:1
4032:1 3589:1 220:1 15836:1
24301:2 12471:1 2788:1 26580:1 8639:1 6481:1
16485:1 21789:1
25591:1 20355:1 756:1 20807:1
28528:1 28109:1 23295:1 939:1 13191:1 27697:1 17808:1 5322:1 28094:1 220:1 3572:1
28027:1 1297:1 23242:1 16472:1 10444:1 9166:1 12471:2 7412:1 16730:1 23187:1 3280:1 220:1 25455:1
26015:1 564:1
15961:1 347:1 12471:1 3396:1
24028:1 878:1 9756:1
3582:1 24628:1 27301:1
10638:1 16200:1 10873:1 16318:1
4441:1 13585:1 5930:1 24499:1 14144:1
6371:1 27793:1 12471:1 28268:1 4875:1 25369:1 7748:1
21274:1 11639:1 1401:1 16015:1
2197:2 7728:1 5187:1
6000:1 12471:1 14926:1 20207:1
25459:1 7936:1
16970:1 2514:1
28109:1 3572:1 891:1 13926:1 261:1 14793:1 21349:1 220:1
25691:1 18619:1 3720:1
24904:1 2579:1 5644:1 9540:1
19858:1 12471:1 5211:1 20207:1 12953:1 2579:1 21881:1 220:1 2290:1
3262:1 7935:1 11935:1 16713:1 17876:1 756:1
14793:1 5224:1
24113:1 14548:1 20736:1
25105:1 25471:1 220:1 21354:1
19744:1 13612:1 17710:1 18900:1 3572:1 2579:1 26540:1 23069:1 220:1
28104:1 16557:1
21956:1 18643:1 24499:1
3031:1 24499:1 11619:1
26465:1 11619:1 1470:1 20718:1
1772:1 27595:1
1283:1 23837:1 149:1 16200:1 13926:1 220:1
12583:1 1283:1
16224:1 27558:1 3572:1 220:1
23930:1 28188:1
22105:1 2769:1
14854:1 23302:1 9362:1
20512:1 10614:1 12471:1 3437:1
10147:1 8568:1 23302:1 12193:1 15781:1
3027:1 23944:1 12471:1 16689:1 15062:1 21746:1 13388:1 24499:1 27186:1
26694:1 26018:1 1757:1 27086:1 15432:1
14409:1 1359:1 15237:1 4939:1 11932:1
8478:1 6098:1 16481:1 13641:1
7781:1 1297:1
12637:1 4939:1
15253:1 13813:1 8215:1 3605:1
6830:1 12471:1 15300:1 19596:1 23606:1 12258:1 23078:1 17092:1 20207:1 220:1
21675:1 6332:1
16485:1 21789:1
16485:1 21789:1
10810:1 12471:1 20546:1 21290:1 1415:1 8519:1
23982:1 24499:1 7999:1 14684:1
12471:1 3572:1 8681:1 3280:1 20874:1 13037:1 27272:2 220:1
16707:1 4266:1
3411:1 9414:1
12667:1 11908:1 25761:1 15237:1 17833:1 6326:1 4266:1
24777:1 28744:1
26932:1 9664:1 4208:1 10520:1 8292:1 18220:1 26595:1 24499:1 10444:1 14530:1 13828:1
11022:1 28593:1
4820:1 1587:1 21083:1
15092:1 3726:1
2772:1 23295:1 21004:1 12973:1 15802:1 23298:1 27973:1 220:1
2700:1 962:1 10444:1 28359:1 13693:1
12471:1 753:1 3105:1
7922:1 13733:1
25236:1 13120:1 10313:1
21174:1 26018:1 18068:1 19675:1 24:1 981:1 24499:1 13926:1
11779:1 12940:1 16400:1
2015:1 17639:1 14847:1
7728:1 6706:1 12730:1 27518:1 3572:1 25256:1 24499:1 20207:1 220:1 16923:1
28395:1 21881:1 23352:1
5456:1 55:1
16500:1 20518:1
28029:1 20194:1 21951:1 10444:1 2180:1
24301:1 22001:1 7672:1 4163:1 23513:1 22895:1 20021:1 10444:1 19277:1 220:1
10444:1 10202:1 21294:1 20426:1 28448:1
3249:1 2197:1 6786:1 13501:1
27476:1 23733:1 4726:1 15697:1 26604:1 5449:1 1040:1
17150:1 12022:1 27035:1 4163:1
7757:1 12471:1 28790:1 12608:1 10444:1 6292:1 220:1 22206:1
4859:1 7748:1 23837:1
10005:1 3572:1 21350:1 12567:1 220:1 12638:1
12471:1 23705:2 10873:1 25505:1
12471:1 8722:1 5300:1 7701:1 1291:1 20802:1 21359:1 220:1 4273:1
15488:1 896:1 4163:1
21191:1 16155:1 28109:1 3572:1 27700:1 13632:1 6664:1 13926:1
15146:1 18095:1 20996:1
12023:1 23708:1 28781:1 11022:1 25551:1 5636:1 24728:1 13926:1 24968:1 220:1 4266:1
5620:1 26860:1 1166:1
439:1 15554:1
1291:1 12390:1
11620:1 14296:1 8790:1
24019:1 26811:1 17425:1 3720:1
4444:1 23778:1 11619:1
26015:1 27103:1 22944:1
20719:1 10444:1 21274:1 220:1 21064:1
6575:1 10491:1 20940:1 16163:1 15685:1 19666:1 12161:1
26300:1 6721:1 15846:1
13691:1 1673:1
15338:1 6776:1 1297:1 3543:1 11408:1 21265:1 16013:1 3333:1
12611:1 25958:1 24520:1
15434:1 12471:1 3572:1 25010:1 9147:1 1156:1 17876:1 9323:1 10186:1 220:1 5832:1
9238:1 24499:1 13272:1 8681:1 8737:1
24599:1 23545:1 24459:1 6630:1 24344:1 3720:1 220:1 24630:1
307:1 1723:1 19122:1 11019:1 2209:1
28621:1 14863:1 5314:1
25262:1 5567:1 21499:1 23837:1
28355:1 4545:1 189:1 27550:1
10487:1 27194:1 23778:1 18172:1 21423:1
170:1 12827:1 28617:1 220:1 4026:1
8705:1 1121:1 24301:1 20208:1 20329:1 10105:1 21493:1 27035:1 10444:1 220:1 7031:1
21436:1 11701:1 127:1 329:1
7485:1 27425:2 3572:1 21212:2 9990:1 220:1
12471:1 2015:1 13452:1 14381:1 4441:1 18674:1 10444:1 16916:1
26918:1 28359:1 17290:1 10444:1 220:1 16923:1
14884:1 7728:1 14946:1 15997:1 9783:1 13887:1 24661:1
25489:1 6923:1 23837:1 4163:1 26703:1 12471:1 21252:1
5857:1 733:1 20088:1 7720:1 12471:1 220:1
3280:1 22181:1 7496:1
28656:1 19359:1
25573:1 4666:1 19816:1 5529:1 25890:1
2066:1 5624:1 13926:1 23945:1 2649:1
24301:3 28679:1
24236:1 27211:1 2121:1 28325:1 1296:1 6689:1 16763:1
9591:1 28188:1 4456:1 9238:1 24499:1 9898:1 8737:1
15574:1 21933:1 3589:1 14144:1
1309:1 686:1 12471:1 17113:1
1297:1 24594:1 7006:1 5117:1 6618:1 3720:1
21881:1 13733:1 24499:1 23705:1
27595:1 220:1
23939:1 5958:1 6307:1
26363:1 2579:1
21493:1 20736:1 24272:1 220:1
6076:1 27605:1 4235:1 8630:1 21614:1 220:1
24110:1 8273:1 3572:1 220:1
14437:1 14938:1 212:1 21832:1
997:1 9595:1
11937:1 23396:1
12551:1 10773:1 27094:1 3072:1 25010:1 220:1
2197:1 10444:1 2074:1
27973:1 13388:1 12471:1 11022:1 27272:1
15130:1 12471:2 20646:1 17425:1 17212:1 9662:1 15616:1 11685:1 220:1 27660:1
21661:1 14730:1 17282:1 16096:1
6255:1 10970:1 10035:1 17890:1 24499:1 10444:1 21252:1 23778:1 22981:1
2499:1 23297:1 422:1 11907:1 17419:1 2682:1 14752:1
19412:1 12471:1 3349:1 9614:1 20339:1 21212:1
26748:1 17072:1 12942:1 5278:1 3257:1 10444:1 15902:1 14105:1 12471:1 10948:1 25010:1 220:1 388:1
4750:1 2532:1 18691:1 10613:1
6682:1 15802:1 15981:1 25371:1 25818:1 24180:1
12701:1 12471:3 28208:1 24722:1 6171:1 21359:1 14278:1 28593:1 9432:1
24625:1 4939:1
27425:1 11428:1 20162:1 10444:1 23267:1 21881:1 220:1 5300:1
7599:1 23295:1 16923:1
20490:1 14343:1 13046:1 18328:1 19596:1 23323:1 15237:1 220:1 17617:1
18828:1 12932:1 28196:1
14409:1 24499:1 20719:1 23242:1 220:1
25600:1 31:1
307:1 27732:1
8246:1 26538:1 15871:1
28109:1 7412:1 3572:1 23227:1 10465:1 28094:1 220:1
4150:1 11022:1 14068:1 4861:1 49:1 15997:1 948:1 5424:1
28254:1 3191:1 12471:1 26580:1 2316:1 8639:1 4444:1
21609:1 26823:1
22721:1 11932:1 21135:1
6848:1 5198:1
16374:1 28122:1
22869:1 28047:1 15326:1 13482:1 18735:1 13926:1 15908:1 17475:1 14281:1 6528:2 19321:1 220:1
891:1 5198:1 25543:1 3572:1 220:1
2232:1 17517:1
28027:1 1976:1 1297:1 19450:1 14373:1 23972:1 24997:1 27520:1
11703:1 9634:1 24996:1 10516:1 19126:1
17881:1 20992:1 2197:1 24970:1 12022:1 25006:1 25890:1 13050:1
16485:1 21789:1
23716:1 12371:1 680:1 24499:1 6740:1 6809:1
24301:2 17834:1 21343:1 7748:1
28027:1 3027:1 16452:1 10873:1 23553:1 14333:1 13196:1 220:1
25890:1 23295:1 17193:1 13641:1 19911:1 26247:1 220:1 7876:1
12471:1 11775:1 21186:1 7720:1 13692:1 220:1 24532:1
28318:1 13632:1 24346:1 220:1 20075:1
12856:1 8999:1 18374:1 26447:1
16588:1 2579:1
14356:1 17410:1 24734:1 27533:1 23896:1 22099:1 220:1
10329:1 24499:1
21586:1 18431:1
7478:1 1312:1 16954:1 22855:1 23239:1 19231:1
17103:1 3572:1 25502:1 8900:1 220:1 27222:1
11912:1 3256:1
19332:1 10694:1
25220:1 18068:1
8272:1 1253:1 11022:1 1166:1
16339:1 12443:1 10444:1 220:1
16519:1 2642:1 19086:1 3105:1
5537:1 10067:1 23395:1
10874:1 24301:3 10444:1 9371:1 3720:1
11142:1 16835:1 9016:1 4266:1
20616:1 20207:1
21186:1 1528:1 8193:1 25279:1 25600:1 27575:1 12471:1 7335:1 8465:1
17163:1 14847:1 20497:1 27869:1 10444:1 17419:1 21459:1 411:1 220:1 20502:1
13113:1 24499:1 28062:1
2178:1 11619:1 22895:1 16500:1 28209:1 220:1
14521:1 14957:1 15177:1 10849:1 28417:1 9657:1
9238:1 24499:1 10444:1 8737:1
3361:1 24499:1 11022:1 14064:1 24329:1 12471:1 1250:1
6698:1 220:1 20203:1 14056:1
14068:1 20538:1 20099:1 12471:1 13722:1
25182:1 24379:1 847:1
18306:1 18008:1 14817:1 14700:1 4693:1
7398:1 7472:1
23037:1 12471:1
5678:1 8698:1 4074:1
23629:1 19432:1 13887:1 14068:1 13308:1 24499:1 220:1 7348:1
14158:1 22188:1 10444:1
13037:1 21225:1 5997:1
22245:1 26867:1 12471:1 23242:1 4765:1 7168:1 25010:1 25319:1 220:1 10058:1
12637:1 19305:1 3744:1 220:1 20484:1
23274:1 6402:1 28359:1 23325:1 24792:1
12711:1 25957:1 25558:1 220:1 5833:1 28474:1 4757:1 3608:1 12638:1
15979:1 24581:1
24980:1 16063:1 16923:1
9371:1 28053:1 22245:1 12894:1 26649:1 1733:1 11619:1 2562:1 11566:1 24499:1 27946:1 220:1 2074:1
11566:1 24499:1 1733:1 22245:1 2562:1
21586:1 24499:1 18619:1 2370:1
25105:1 7545:1 12471:1 6589:1 20207:1 12163:1 220:1 15579:1
16155:1 25595:1 12471:1 7728:1 6751:1
25871:1 20976:1 21443:1 2849:1 14871:1 16455:1
19010:1 20768:1
12583:1 26210:1
21121:1 11874:1 21225:1 220:1
17561:1 10587:1
21805:1 1840:1 8809:1 6000:1 4939:1 26268:1 14128:1 24499:1 7196:1
7175:1 28387:1 21050:1 14397:1 21493:1 3139:1 4905:1
21174:1 25871:1 20976:1 129:1 16374:1 15811:1 12471:1 28291:1
25600:1 24499:1 2222:1 3720:1
7195:1 12940:1
9821:1 22832:1
17502:1 12471:1 3198:1 2325:1 1291:1 20259:1 1723:1 220:1
12237:1 5033:1 16455:1 5914:1
5127:1 26963:1 10444:1 13887:1
22245:1 2562:1
25916:1 28104:1 20013:1
1297:1 24459:1 4648:1 6159:1 23598:1 9639:1 2316:1 17765:1
25334:1 7711:1 4763:1 403:1 25010:1 9391:1 10186:1 15405:1
225:1 14610:1 9323:1 17884:1
15376:1 20736:1
2223:1 1291:1 24344:1 95:1 4266:1
3280:2 24499:1 12471:2 19018:1 220:1
2396:1 24499:1 24441:1
14148:1 19419:1
12471:1 587:1 21932:1
3027:1 28395:1 6086:1 11619:1 27700:1 23513:1 7667:1 10444:1
12471:1 21713:1 1605:1 21613:1 28676:1 15237:1 13843:1
2086:1 24236:1 6777:1 7728:1 20874:1
20736:1 16267:1
26572:1 24499:2 16842:1 5328:1 220:1
9772:1 6157:1
24499:1 14362:1 23841:1
6579:1 28757:1 25689:1 3309:1 220:1 8246:1 21265:1 2390:1
4801:1 19057:1
10833:1 10901:1 11910:1 1801:1
16327:1 27774:1 6362:1 1954:1 18821:1 19129:1
26:1 2769:1 12471:1 18332:1 5328:1 1057:1 28291:1 12544:1 220:1
17418:1 24615:1 17871:1 21547:1 2372:1 19954:1
3421:1 11619:1 4163:1 20874:1 7348:1 28188:1
3610:1 6198:1 13169:1 26823:1
28496:1 3724:1 12471:1 7945:1 9509:1
25871:1 1297:1 24459:1 21613:1 27416:1 16293:1
14777:1 220:1 6543:1
12583:1 1626:1 1283:1 220:1
15012:1 16374:1 25094:1 18633:1 220:1
15802:1 27103:1
13113:1 12471:1 21433:1 20546:1 25369:1 6734:1 13843:1
10043:1 307:1 26199:1 20270:1 1297:1 3864:1 220:1 26823:1
25351:1 2925:1 20189:1 6396:1 847:1
21613:1 6638:1 22518:1
8059:1 10147:1 609:1 220:1 13192:1 24499:1 12471:1 26068:1 16013:1 7348:1
20415:1 15116:1
5115:1 8878:1
23418:1 2197:1
9461:1 8573:1 1283:1 20698:1 28487:1 24499:1 13641:1
5178:1 24499:1 20693:1
6371:1 5311:1 19000:1 7748:1 28250:1
14548:1 19817:1 2197:1 7109:1 24499:1 25369:1 220:1
15729:1 21713:1
12471:1 3572:1 17812:1 22952:1 15432:2 25916:1 16706:1 26187:2 220:1 27086:2
12471:2 13887:1 10373:1 8681:1 6678:1 16435:1 11767:1 220:1 22172:1
11698:1 24529:1 28634:1 13196:1 663:1 220:1 4444:1
26552:1 16704:1
21561:1 11288:1 8913:1 17825:1
22637:1 23008:1 20996:1 4693:1 14550:1 16200:1
20534:1 2739:1
21484:1 25010:1 26759:1
17237:1 21250:1 28377:1 21493:1 24499:1 436:1
24499:1 25059:1 1721:1 27520:1
16262:1 17138:1
4186:1 2370:1 8646:1 10569:1 24344:1 26518:1 2121:1 10201:1
3868:1 12831:1 21338:1 15046:1
1647:1 837:1 25053:1 21954:1
12819:1 3572:1 220:1 10096:1
14318:1 105:1 220:1 9856:1 18201:1 23939:1 16646:1
28109:1 3572:1 220:1 24854:2
7110:1 1253:1 8415:1 15836:1
19282:1 20374:1 19913:1 15105:1 5880:1 9528:1
9857:1 15393:1 28188:1
14420:1 11619:1 6361:1 4163:1 17798:1 883:1 16056:1 17092:1 13951:1
12471:1 2682:1 16729:1 4281:1 20141:1 7348:1 4875:1 11043:1 220:1 9756:1
751:1 11022:1 19001:1 4163:1
24599:1 5876:1 8965:1 17812:1 7794:1 26187:1 27086:3 3610:1 12471:3 5481:1 15432:3 16312:1 6528:1
12471:1 8868:1 18220:1 20476:1 3778:1 12871:1 220:1 28552:1
9332:1 24499:1 7585:1 16916:1
24301:1 14689:1 17317:1 4757:1 16472:1 3241:1 220:1
25319:1 24459:1 25043:1 220:1 22208:1
686:1 24499:1 220:1 17425:1 24529:1
1015:1 12471:1 1468:1 18965:1 8916:1 220:1
20162:1 12471:1 5300:1 1225:1 12383:1 13641:1
16566:1 5572:1
24301:1 8880:1 6292:1 4163:1 10444:1 16707:1 14774:1 21569:1 220:1 2196:1
220:1 11022:1 77:1 21237:1
13502:1 12471:1 13213:1
17361:1 28109:1 3572:1 25600:1 26546:1 11001:1 220:1
3385:1 1002:1 6923:1 15529:1 9533:1
10014:1 24529:1 1253:1
20736:1 3720:1
5179:1 23750:1 8133:1 1814:1 13172:1 24499:1 14515:1
21896:1 24839:1 25182:1 23837:1
25217:1 11566:1 1733:1 220:1 11865:1
28498:1 8330:1 13491:1 13300:1
13046:1 24122:1
26753:1 8423:1 13317:1 25010:1 18095:1
21980:1 22725:1 8427:1 3917:1 12152:1
4077:1 7160:1 1123:1
14295:1 17269:1 17011:1
16155:1 12022:1 21991:1 25890:1 9655:1
16485:1 21789:1
6565:1 16155:1 18172:1
21805:1 8809:1 25492:1 10845:1 1297:1 27015:1 13823:1
27977:1 19518:1 25226:1
11642:1 24344:1 12471:1 8351:1 7387:1
16339:1 26064:1 23242:1 12122:1 7177:1 10444:1 323:1
24301:3 12471:1
27472:1 26748:1 4880:1
20162:1 4449:1
17911:1 12852:1 10955:1 3572:1 19359:1 22799:1 3569:1 6993:1 220:1
6681:1 1297:1 9595:1 1309:1 3679:1 15622:1
1782:1 49:1
25845:1 12807:1 4757:1 21186:1 24499:1 26845:1 220:1 7876:1
3027:1 220:1 36:1 6292:1 20254:1 24301:2 4163:1 23711:1 7748:1 2855:1
24236:1 23239:1 11619:1 21493:1 24499:1 220:1 15836:1
686:1 25939:1 11619:1 5908:1
16339:1 22075:1
5992:1 27754:1
20874:1 12123:1
220:1 21156:1 26360:1 20207:1 10873:1 5485:1
686:1 1297:1 24459:1 17425:1 24499:1 220:1
6620:1 220:1 28109:1 3572:1 15432:1 20874:1 24173:1 27086:1
7935:1 10810:1 15432:1 27635:1 18388:1 27086:1
10748:1 263:1 12639:1 25256:1 4043:1 21832:1 1283:1
17664:1 15779:1
4270:1 2762:1 2642:1 26860:1
26963:1 24499:1 14548:1 23747:1 15559:1 12443:1 6301:1 19666:1 7348:1 10444:1 22418:1
20404:1 22737:1 9769:1 11033:1 4146:1 7972:1 220:1
15742:1 15062:1 5116:1 563:1 13926:1 20912:1 20207:1 6528:1 1291:1 14946:1 5703:1 220:1
25492:1 23263:1
24344:1 8963:1 21947:1
20162:1 1297:1 220:1 19596:1 24863:1 17798:1 24499:1 24745:1 5300:1
8386:1 17963:1 220:1 21976:1 24499:1 6328:1
22245:1 2562:1
11882:1 21141:1 25514:1 12534:1 10186:1
9359:1 2366:1
220:1 4150:1 9323:1 26568:1 25010:1 22960:1 17765:1
24046:1 19999:1
14411:1 12471:2 26187:2 13692:2 220:3
12471:3 693:1 18550:1 12193:1 2197:1 7412:3 17324:1 10444:1
23598:1 20996:1 2137:1 14817:1
9052:1 20194:1
11939:1 1992:1 220:1 13926:1 3720:1 6630:1 5485:1 24499:1 18365:1 25256:2 3572:1
26918:1 26576:1 21739:1 17684:1 220:1
15253:1 12471:1 14194:1 10400:1 18220:1 7348:1 4875:1 11043:1 220:1 9756:1
6625:1 25871:1 2533:1 21610:1
1642:1 23705:1 13693:1 12193:1
220:1 14847:1 11874:1 26477:1 4693:1 14033:1 1560:1 8489:1 21327:1 3572:1
2075:1 4847:1 14602:1
22875:1 11619:1 41:1 19203:1 24344:1 714:2
13097:1 28109:1 3572:1 220:1 17529:1
14138:1 27476:1 12545:1 7432:1 22354:1 16681:1 10997:1
5786:1 23712:1 1946:1
25871:1 21225:1 20736:1 25010:1 18366:1 26447:1 11060:1
24499:1 22231:1
8748:1 5622:1 25010:1 24731:1
19501:1 10810:1 25670:1 15432:1 17030:1 18388:1 13926:1 23297:1 27086:1
21610:1 10444:1 3186:1
15253:1 21181:1
25128:1 12750:1
912:1 12471:1 4693:1 8866:1 9391:1 10444:2 11154:1 220:1 20456:1
21274:1 23182:1 219:1 14081:1 18949:1 22899:1
17335:1 22001:1
7439:1 24499:1 14276:1 23441:1 3396:1 12635:1 15616:1 15432:1 12471:1 28781:1 27086:1
12033:1 26644:1 13614:1 21625:1
28027:1 19770:1 15190:1 18569:1 7092:1 10444:1 220:1
28623:1 17713:1
18186:1 28679:1
27869:1 19770:1 6813:1 10873:1
13522:1 25010:1 19154:1
24499:1 23269:1 1297:1 18186:1 2232:1 12471:3 22040:1 4939:1 21897:1 25010:1 220:1 388:1
12471:1 22433:1 22885:1 23323:1 16434:1 24863:1 11799:1
21613:1 7544:1 21407:1 25890:1 4163:1
1797:1 5378:1 2344:1
14181:1 10317:1 105:1 27983:1 6136:1 24499:1 2409:1 4779:1 26381:1
14343:1 8705:1 28781:1 13388:1 17604:1 220:1
17072:1 2772:1 4179:1 5221:1 28399:1 220:1
7700:1 15354:1
1596:1 4979:1 24499:1 8946:1 4273:1
26572:1 12471:1 19946:1 11619:1 3186:1 19959:1 22627:1
10329:1 28399:1 26840:1
24944:1 26363:1
24499:1 17645:1 16646:1 4266:1
24301:1 26867:1 11703:1 17317:1 11619:1 3186:1 21121:1 10444:1 25505:1
5456:1 10597:1 1207:1 6347:1
3027:1 4362:1 27837:1 13388:1 21499:1 26196:1
27086:1 15432:1 9499:1 15841:1 20450:1
23506:1 28109:1 26823:1 14956:1 3579:1 8805:1 220:1 3572:1
2084:1 26015:1
220:1 14787:1 10444:1 795:1 28109:1 7647:1 15291:1 24792:1 28355:1 24499:1 2697:1 6292:1
25010:1 129:1
4939:1 27330:1
11790:1 837:1 4922:1 220:1 839:1
18882:1 10444:1
686:1 26015:1 16689:1 4765:1 2377:1 25010:1 10444:1 220:1
7972:1 10036:1 22013:1
5449:1 1297:1 15802:1 8142:1
10221:1 12471:1 23052:1 1369:1 5127:1 20874:1 12732:1 24012:1 6309:1 11063:1
26231:1 28387:1 2137:1 15222:1 16572:1 18968:1 21225:1
20401:1 26843:1 28377:1 14451:1 23450:1 24401:1 10951:1
3280:1 27198:1 25858:1 11619:1
4861:1 3569:1 3942:1
4507:1 25558:1 3325:1 3572:1 394:1 26419:1 27177:1 25118:1 220:1 14831:1
11918:1 17420:1
1309:1 11616:1
7781:1 4939:1
24301:4 23358:1 18702:1 19225:1 666:1 13970:1 10444:1 27782:1 26472:1 220:1
17233:1 21713:1 5164:2 1840:1 2015:1 24465:1
127:1 12471:1 21482:1 13607:1 22258:1 18674:1 4444:1 220:1
22595:1 1092:1 12712:1 28040:1 4012:1
21274:1 15297:1 18544:1 28188:1
17834:1 18549:1
20239:1 3572:1 15836:1 10313:1 5378:1 220:1 25890:1
23778:1 26589:1
28482:1 3436:1 11383:1 12471:5 14182:1
18186:1 28679:1
25871:2 26953:1 17425:1 16051:1 26367:1 12471:3 220:1 24180:1
27937:1 2121:1 12279:1 3569:1 13196:1 7001:1
21613:1 11529:1 24905:1 28534:1
26064:1 16588:1 4939:1 25871:1 24499:1 26518:1 10120:1 11687:1
10444:1 21390:1 2595:2
16223:1 12932:1 3572:1 12208:1 26079:1 25890:1 220:1 21071:1
17851:1 7009:1 11022:1 25010:1 20903:1
24499:1 13857:1 3569:1 3963:1 19248:1
11770:1 15188:1 13887:1 3572:1 6620:1 21027:1 220:1 18691:1
16485:1 21789:1
12201:1 7688:1
7639:2 4128:1 1920:1 220:1
12471:1 28624:1 19126:1 853:1
26932:1 12471:1 14684:1 26167:1 20207:1 18370:1 14792:1 18220:1 220:1
24499:1 23837:1 1166:1
1776:1 3720:1 17144:1 201:1
10112:1 21482:1 12144:1 19911:1 1245:1 21390:1 28046:1
18674:1 17092:1
7195:1 20718:1 6305:1 27417:1
20511:1 12471:1 3572:1 7867:1 12582:1 7160:1 220:1 12865:1
7639:1 1721:1
24860:1 12471:1 3572:1 220:1 18932:1
12537:1 27837:1 24389:1 24579:2 13926:1 18794:1 28109:1 12471:1 3572:1 10791:1 220:1 11022:1
9532:1 14544:1 14718:1
25761:1 2198:1 16155:1 15616:1 27327:1 10444:1 220:1 20372:1
921:1 4028:1 27420:1
11475:1 19884:1 16400:1 4266:1
12831:1 15417:1 11951:1 2121:1 12761:1 1913:1 16416:1 4444:1
14476:1 18477:1
22231:1 18186:1
9639:2 13196:1
24499:1 26284:1 16553:1
4875:1 15997:1 7258:1 7348:1
1541:1 12471:1 16472:1 220:1 3720:2
26363:1 19488:1 23837:1 28457:1 21613:1 13300:1 24547:1
6280:1 26109:1 5662:1
7601:1 14409:1
17700:1 27086:1 22610:1 3396:1 15432:1
17463:1 1065:1 20122:1 12471:1 23242:1 18943:1 21586:1 26202:1 220:1
25692:1 12544:1
16485:1 21789:1
3027:1 27982:1 25788:1 15782:1
8193:1 3572:1 23837:1 17700:1 15616:1 15836:1 4289:1 220:1 23945:1
4211:1 1528:1 12471:1 220:1 1291:1 964:1 3190:1 12564:1 24405:1 7335:1 17884:1
27733:1 27103:1
20958:1 27330:1 22001:1 6086:1 8449:1
12471:2 559:1 15432:2 17812:1 7720:1 12213:1 27086:2
25871:1 20270:1 20736:1 4266:1 23594:1 220:1 95:1
28200:1 21896:1 23011:1
21610:1 12471:1 26519:1 3328:1 5278:1 19640:1 16563:1 2522:1 220:1
17275:1 2089:1 3720:1
21711:1 28778:1
17081:1 25558:1 20976:1 19751:1
3280:1 13181:1 15095:1 17110:1 10444:1 23037:1 17275:1 27272:1 220:1
14303:1 24499:1 15630:1
26963:1 12471:1 15263:1 13665:1 28676:1 1415:1 13843:1
21586:1 25319:1 12662:1 10482:1 25598:1
14350:1 10444:1 21239:1 18760:1
4764:1 27782:1 24634:1 21125:1 10444:1 12629:1
1659:1 18108:1 28126:1
21586:1 2224:1 2223:1 220:1
8705:1 6534:1 28781:1 7412:1 16729:1 16400:1 1295:1 24499:1 220:1
12381:1 14907:1 11384:1 916:1 24731:1 14550:1 14303:1 1609:1
12471:1 8338:1
27382:1 20915:1 27813:1 16864:1 6186:1 22567:1 13887:1
21225:1 18366:1 26447:1 20736:1
21674:1 10416:1 24499:1 220:1 7845:1
21704:1 16681:1 7639:1 7432:1 15869:1
20162:1 20129:1 14684:1
393:1 21832:1
6898:1 12471:2 3572:1 22396:1 15058:1 15670:1 7885:1 220:1 9323:1
15871:1 4939:1 27330:1
10143:1 12050:1
3280:1 24301:3 1297:1 11619:1 21304:1
3896:1 20794:1 6923:1
4872:1 18113:1 16374:1 18219:1 14618:1 220:1
14343:1 28621:1 15448:1 18184:1 27272:1 10305:1
683:1 28617:1 9702:1
1606:1 9695:1 220:1
686:1 24499:1 220:1 17425:1 3589:1
14099:1 1297:1 24082:1 939:1 27441:1
3280:1 13385:1
9690:1 4716:1 18220:1 28781:1 24722:1
12471:2 1297:2 3264:1 4939:1 10791:1 25010:1 220:1 24168:1
5328:1 1659:1 28304:1 22188:1 220:1 8058:1
15557:1 17570:1
4909:1 5449:1 24499:1 10444:1 16013:1 7348:1
5449:1 10961:1 11406:1 20923:1 15031:1
28395:1 6396:1 1721:1
7728:1 3103:1 4939:2 28506:1 13926:1 220:1 19061:1
21123:1 20207:1 27420:1
20270:1 25951:1 15926:1 10444:1 27812:1 1905:1
8162:1 4369:1 17721:1 7728:1 22200:1
6496:1 11619:1 12193:1
26648:1 15461:1 21613:1 8681:1 17644:1 2483:1 3681:1
9809:1 3563:1 20744:1 24499:1 220:1 11961:1
16802:1 18063:1
12471:1 6292:1 12510:1 26256:1 1258:1 2628:1 220:1
4765:1 23295:1 7412:1 14593:1 28062:1 27016:1 24798:1 15984:1 12471:1 4081:1 220:1
3868:1 2368:1 18674:1 24180:1 19126:1
4875:1 15997:1 7258:1 7348:1
5720:1 24769:1 18505:1 28170:1 12002:1
15742:1 751:1 4939:1
13588:1 8519:1
17317:1 11619:1 23598:1 21265:1 3569:1 6638:1
3241:1 1297:1 7196:1 5620:1
25319:1 2209:1 21586:1 9594:1 18431:1 220:1 3720:1
7639:1 24301:3 10615:1
562:1 4394:1
8748:1 6186:1
8249:1 24193:1 24762:1
2562:1 220:1 16273:1
4558:1 18702:1
12471:1 22468:1 25369:1 367:1
19061:1 623:1 22690:1 26480:1
14068:1 27352:1 220:1
11619:1 21488:1 19151:1 13887:1 2366:1
12011:1 26363:1 24841:1 220:1 26162:1
21881:1 27425:1
8219:1 6689:1
25228:1 10490:1 4757:1 19959:1 24499:1 220:1 5300:1
25114:1 13205:1 12471:3 20012:1
24499:1 9898:1
11109:1 10849:1 15177:1 4939:1 18121:1
20869:1 24863:1
7195:1 26363:1 24046:1
14068:1 27352:1 220:1
28027:1 15742:1 4780:1 6159:1 1723:1 26396:1 15031:1 12471:1 15807:1 27194:1 220:1 17965:1
20404:1 19751:1
12471:1 4813:1 26193:1 10539:1 25010:1 8449:1
23467:1 15386:1 14783:1 15815:1 19653:1 26893:1
16374:1 24565:1 3281:1 121:1
24130:1 11619:1 16187:1 4545:1 24499:1 13693:1
24344:1 3572:1 220:1 14604:1
28516:1 11916:1 10866:1 220:1
24772:1 220:1
10444:1 12471:1 1121:1
18335:1 6198:1 10783:1 19349:1 3692:1 13926:1 4444:1
17932:1 6001:1 21597:1 1118:1
9645:1 25689:1 22960:1
19924:1 23043:1 19225:1 21613:1 15552:1 3245:1 17645:1 9610:1 220:1 3572:1
2579:1 9972:1 12449:1 19838:1
27709:1 27849:1 18644:1 21736:1
19897:1 9620:1 2912:1 18467:1 7348:1
20344:1 12471:2 20841:1 5221:1 27249:1 1258:1 220:1 4266:1
8681:1 17876:1 4752:1 24459:1
12658:1 6242:1
5127:1 24895:1 17275:1
18761:1 26267:1 11022:1 16950:1 13926:1 1162:1 11791:1 28156:1 220:1 3572:1
26190:1 3906:1 12471:2 17812:1 23146:1 15432:3 26635:1 7720:1 4474:1 27086:3
10729:1 5833:1 2855:1
25600:1 15373:1
26932:1 12583:1
9513:1 3441:1
23037:1 24022:1 12564:1
28191:1 5841:1 10487:1 16435:1 20426:1 21736:1
4065:1 11939:1 25334:1 12471:1 7412:1 25256:1 15174:1 3186:1 4017:1 19105:1 21407:1
18191:1 1417:1 15717:1
1442:1 12471:2 7715:1
28805:1 10061:1
16427:1 7343:1 15976:1 27189:1 3057:1 24499:1 15836:1
776:1 12730:1 15496:1 220:1 10791:1
8530:1 4822:1 14926:1 24459:1
27965:1 14409:1 4519:1
16485:1 21789:1
18630:1 19208:1 9851:1 15869:1 316:1 10105:1
21274:1 2197:1 3328:1 16484:1 5138:1 24499:1
27360:1 25010:1 55:1 15512:1 14871:1
200:1 24499:1 18841:1
6848:1 3280:1 24731:1
3027:1 6879:1 2682:1 15432:1 55:1 24292:1 4875:1 5727:1 27086:1
686:1 15604:1 17581:1 25871:1 24294:1 220:1
18186:1 28679:1
22323:1 23756:1
22847:1 15376:1 17172:1 19015:1 20722:1 6422:1 7728:1
13452:1 2121:1 1291:1 3569:1 10036:1 10444:1 220:1 25613:1
768:1 20429:1 1309:1 849:1 11790:1
7639:1 4238:1 220:1
18854:1 13037:1
16037:1 12471:1 13970:1 6763:1 21121:1 10444:1 16015:1 14515:1
26363:1 17193:1 21670:1 4955:1 19548:1 19001:1
14828:1 5605:1 10444:1 19751:1
20342:1 1419:1 7196:1 13482:1
25256:1 28266:1 3720:1
16889:1 3957:1
6818:1 3804:1 20419:1
18171:1 24499:1 16435:1 20207:1 1946:1
