7405:1 24216:1 1461:1 469:1 4636:1 18757:1
12831:1 17054:1 2121:1 28416:1 11619:1 27272:1 10444:1 8748:1 220:1 16495:1
25222:1 587:1 12651:1 19057:1 11092:1 19884:1 3241:1 6282:1 8708:1
3027:1 11494:1 21076:1 20370:1 6946:1 14303:1
17710:1 6098:1 20772:1 18722:1 23418:1 4020:1
25025:1 11106:1 219:1 25010:1 2642:1
16827:1 2956:1 9133:1 847:1 12954:1 1492:1 4714:1 19732:1
1297:1 2690:1 860:1 16374:1 16864:1 20393:1 18505:1
22905:1 25010:1 19275:1 1840:1 20212:1 4635:1
4443:1 22847:1 5115:1 16713:1 18793:1 13887:1
15063:1 21265:1 14506:1 11619:1 16133:1 28146:1 847:1 5419:1
19217:1 28697:1 27521:1
7648:1 3569:1 1297:1 14214:1 17109:1
22131:1 27550:1 11022:1 28414:1 10569:1 10828:1 17777:1 10443:1
10569:1 1297:1 19126:1 2011:1 27660:1
17191:1 21803:1 1996:1 18135:1 7736:1 8698:1 26328:1 27476:1 11799:1
21805:1 9594:1 4186:1 7087:1 21613:1
26156:1 26381:1 2810:1 22967:1 17444:1 16598:1 17150:1 13825:1
7893:1 18283:1 2810:1 4636:1 22493:1 2642:1
12831:1 10901:1 14667:1
1051:1 10011:1 9948:1 13553:1
6000:1 2865:1 11297:1 15836:1
6302:1 24499:1 26589:1
28431:1 16189:1 1297:1 2642:1 23837:1 13752:1 1921:1 1938:1
6705:1 7691:1 17774:1 13312:1
23901:1 13120:1
12831:1 23026:1 13120:1 12471:1 22166:1 712:1
16221:1 377:1 6309:1 11150:1 7348:1
3575:1 4536:1 17405:1 21314:1 14064:1
27272:1 1990:1 16923:1 19415:1 20212:1
5566:1 12471:1 13452:1 3186:1 15174:1 17411:1 25524:1 12865:1
21805:1 915:1 28129:1 16764:1
23619:1 26963:1 25334:1 5256:1
28287:1 18366:1 3131:1 13529:1
15883:1 19134:1 21620:1 7830:1 7520:1 13186:1
18645:1 2483:1 2323:1 14076:1
3720:1 19104:1 7830:1 5152:1
9513:1 13171:1 18977:1
10908:1 660:1 10726:1 25890:1 25267:1 16553:1
250:1 16864:1 14579:1 11703:1
16938:1 21553:1 9461:1 12302:1 24213:1 27216:1
17196:1 3016:1 22987:1 10444:1 4142:1 8642:1
203:1 13048:1 6723:1 10247:1 4059:1 2810:1 26722:1 12783:1
26199:1 13065:1 13300:1 24180:1
13276:1 6705:1 3592:1 25524:1 9301:1
20518:1 25301:1 792:1
2716:1 25010:1 3234:1 26866:1 28314:1
12831:1 3589:1 18460:1 9238:1 2209:1 220:1
4441:1 3326:1 18343:1 11696:1 13262:1
14931:1 3589:1 24499:1 19924:1 297:1
12849:1 2664:1 1038:1 23705:1 28191:1
12212:1 9750:1 7830:1 7716:1 27184:1 13887:1
24499:1 21204:1 21144:1 14579:1 13922:1 10444:1
20912:1 17317:1 10444:1 21983:1 1242:1 12783:1 17884:1
10480:1 12783:1 20393:1 15037:1 8197:1 3994:1
20628:1 25774:1 16221:1 25010:1 21169:1 15001:1
24643:1 5657:1 939:1 7830:1 12286:1 9949:1
4843:1 24499:1 28161:1 13482:1 1287:1
17150:1 7009:1 3007:1 2810:1 17444:1 21613:1 18793:1
12831:1 2721:1 15046:1 28403:1
26156:1 20346:1 3569:1 12184:1 19380:1
11139:1 7036:1 21075:1 10086:1
4411:1 25223:1 17635:1 12172:1 16050:1 26156:1 563:1
4238:1 16938:1 3811:1 12658:1 16747:1 13171:1
12831:1 1920:1
21610:1 21075:1 18618:1 24499:1 9166:1 12865:1
28027:1 4415:1 3027:1 13207:1 6818:1 3431:1 24499:1 27071:1
21076:1 28229:1 634:1 28101:1 18155:1 25547:1
12831:1 18721:1 1297:1 10828:1 25334:1
2326:1 24216:1 9978:1 2989:1 16990:1
17673:1 27745:1 28314:1 22119:1 24499:1 4161:1 814:1
9797:1 25010:1 20912:1 22885:1 9532:1 27:1 20518:1
17676:1 24730:1 10828:1 813:1
6292:1 20010:1
4944:1 22461:1 26228:1 26604:1 24499:1 11895:1 10758:1
21610:1 3266:1 3991:1 10521:1 14379:1 11183:1 21274:1 220:1
25010:1 17644:1 24459:1 2810:1 20558:1 18793:1 4932:1 25267:1 23243:1
6705:1 6000:1
16884:1 1538:1 1297:1
11477:1 1642:1 19884:1 28643:1 16200:1 25010:1
563:1 27733:1 21809:1 21539:1 18135:1
24945:1 13691:1 21075:1 25267:1 2810:1
25838:1 19518:1 23861:1 23837:1
19332:1 2137:1 13749:1 21493:1 24499:1 14790:1 23239:1 19132:1
22503:1 11999:1 20459:1 14931:1 9187:1 24791:1 4195:1
7439:1 1840:1 16747:1 15836:1 10535:1 18691:1
1297:1 14899:1 19611:1 6400:1 25256:1 10444:1 6316:1
17975:1 5115:1 15488:1 3051:1 1696:1 4129:1
26786:1 26363:1 9406:1 4813:1 2810:1 26165:1 28676:1 11637:1
21525:1 11235:1 5961:1 24459:1 2810:1 27622:1 8041:1 13691:1 1296:1 28395:1
23365:1 14720:1 17908:1 26302:1 28191:1
7935:1 23253:1 21436:1 15506:1 28811:1 1103:1
6302:1 8257:1 25078:1 26867:1
3771:1 10444:1 26156:1 10536:1 28730:1 22955:1
18161:1 601:1
5781:1 16874:1 9055:1 26333:1 24499:1 4439:1 24180:1
21274:1 25010:1 1297:1 5342:1 16740:1 1824:1 21983:1
12894:1 8906:1 25334:1 13728:1
16699:1 18793:1 19924:1 439:1 21815:1 25267:1 14970:1
1051:1 27468:1 788:1 1297:1 6922:1 24500:1 19187:1 490:1 17774:1
1200:1 25094:1 21075:1 7466:1 947:1 14704:1
17975:1 25761:1 18977:1 23705:1 26518:1 11637:1
3191:1 13926:1 21613:1 19884:1
2197:1 8838:1 13893:1 6920:1
20893:1 20092:1 17405:1 14363:1 18873:1 16988:1
5256:1 5532:1 14165:1 13277:1
28384:1 17710:1 9620:1 20451:1 1538:1 13513:1
25105:1 11750:1 8369:1 14265:1 18130:1 9406:1
25222:1 28325:1 10444:1 7728:1 24768:1 20874:1 16200:1 24499:1 6309:1 23352:1 21711:1
24062:1 12471:1 10569:1 10551:1 7307:1 28229:1
855:1 24499:1 6618:1 12667:1 14303:1 21459:1 20706:1 4932:1 3991:1
5626:1 1297:1 8809:1 7087:1 5449:1 6641:1 8639:1 13789:1
22046:1 110:1 25945:1 20180:1 10828:1 5176:1
8215:1 21409:1 14089:1 18977:1 2810:1 24636:1 18793:1 13728:1 16727:1
17975:1 7786:1 995:1 18114:1 7466:1 24768:1 15685:1 18793:1 13749:1
27080:1 28359:1 24249:1 16200:1 15650:1 13887:1 19948:1
4443:1 14351:1 2810:1 20635:1 24791:1 14990:1 16104:1
4893:1 12471:1 11150:1 21553:1
22150:1 4448:1 25155:1 16764:1
22848:1 8655:1 24496:1 8838:1 24213:1
3417:1 15685:1 12658:1 26156:1 18008:1 3569:1 18793:1 2301:1
5256:1 24665:1
2370:1 21290:1 26461:1 8302:1 13887:1 18155:1
22161:1 18646:1 12471:1 15452:1 19959:1 25162:1 15370:1
7239:1 4165:1 5510:1
4411:1 20370:1 1685:1 13887:1 23431:1
28384:1 4443:1 19653:1 13771:1 28314:1
1934:1 2555:1 10110:1 22203:1 19345:1 3753:1
26763:1 15868:1 12852:1 3484:1 24733:1 6093:1 3027:1 21300:1
10242:1 21222:1 16745:1 4399:1
19442:1 13721:1 9836:1 12783:1
21226:1 7067:1 17138:1 21613:1 16200:1 8838:1 14119:1
6818:1 28395:1 2301:1 18737:1 20393:1 8877:1 26369:1
21879:1 12973:1 5970:1 1283:1
11329:1 17196:1 7619:1 26461:1 8302:1 13887:1 18155:1
10901:1 3281:1 14303:1 6269:1 24499:1 15013:1 9659:1
9457:1 10569:1 2329:1 24768:1 27992:1 9594:1 1316:1 4789:1
16747:1 12675:1 7439:1 7716:1
5933:1 11493:1 27622:1
19217:1 27521:1 25431:1 15762:1
18862:1 16080:1 20485:1 2810:1
26786:1 7122:1 19518:1 27193:1 18500:1
10569:1 5626:1 26845:1 4477:1
13349:1 26:1 18083:1 13654:1 2240:1 28410:1 19851:1 23948:1
5566:1 6410:1 22728:1 5449:1 18848:1 10444:1
3643:1 12509:1 19314:1 18756:1 18589:1 7120:1
28027:1 7735:1 7148:1 20393:1 6960:1 4150:1
3806:1 13065:1 11022:1 21613:1
17982:1 25600:1 11689:1 7412:1 2976:1
16168:1 28781:1
307:1 18806:1 8055:1 13065:1 6306:1 3583:1 6573:1 9756:1 15648:1
26937:1 1522:1 22050:1 7174:1 11847:1 28417:1
26786:1 6194:1 24587:1 17463:1 14931:1 13887:1 27520:1
23366:1 13255:1 2203:1 3713:1 7029:1 3880:1
17057:1 3007:1 4195:1 9166:1
23901:1 28676:1 8058:1 16923:1 26893:1
15685:1 27550:1 10569:1
782:1 23156:1 10036:1 1297:1 2121:1 19144:1 18170:1 17444:1 12:1 2372:1 13926:1 11619:1 12910:1 3007:1 20488:1 24424:1 10410:1 9513:1 24499:1 12471:2 5352:1
12831:1 9461:1 9547:1 4280:1
6902:1 9513:1 13186:1 7466:1
563:1 16879:1 23705:1 23638:1
18008:1 24936:1 19651:1 2121:1
27733:1 16709:1 5460:1 634:1
22982:1 1723:1 14214:1 1166:1 13725:1 24499:1 220:1
3569:1 3804:1 17051:1 18977:1
3569:1 18388:1 8200:1 6823:1 7466:1
3191:1 5250:1 12471:1 20859:1 19884:1 3186:1 1620:1 28707:1
27622:1 24819:1
3385:1 24530:1 4983:1 2579:1 18243:1 10845:1
3647:1 24992:1 17710:1 9001:1 28398:1 19345:1 2079:1 6230:1
1072:1 7649:1 5256:1 15217:1 6080:1
1689:1 2555:1 6000:1 11619:1
1131:1 25094:1 11637:1 7830:1 7714:1
2130:1 23604:1 20518:1 4423:1 5449:1 9532:1 19539:1
23989:1 17196:1 7769:1 19892:1 18502:1 220:1
11920:1 27290:1 4392:1 25790:1 16879:1
2810:1 28664:1 27975:1 25589:1 25010:1 12812:1
24643:1 563:1 24050:1 10652:1 19343:1
16620:1 1297:1 3252:1 17532:1 16221:1 219:1
14946:1 1258:1 17311:1 13279:1 14610:1
10625:1 7087:1 24726:1 21613:1 28673:1
27965:1 270:1 13207:1 16894:1 12596:1
14645:1 2399:1 13452:1 20611:1 27598:1 24459:1
3806:1 6699:1 12954:1 20982:1 10444:1 3191:1
13414:1 9313:1 5449:1 2936:1 25040:1 21300:1 6309:1
17150:1 3007:1 1313:1 2810:1 18245:1 24459:1 9821:1 28395:1 20923:1
26963:1 14289:1 15177:1 6660:1 18876:1 3569:1 1538:1 3963:1 13300:1 4020:1 13286:1
1927:1 24074:1 18135:1 1279:1 847:1 28417:1 23638:1
15009:1 7830:1 7648:1 26156:1 24499:1 26098:1
21805:1 13912:1 13243:1 21436:1 6302:1 13054:1
21100:1 3569:1 12068:1 2561:1 24916:1
21707:1 12790:1 2224:1 18283:1
26165:1 6269:1 23051:1 1375:1
27970:1 11951:1 6000:1 19924:1 8930:1 28314:1 491:1 5860:1 27785:1
23758:1 10416:1 18793:1 106:1 18114:1
28027:1 24540:1 11064:1 14761:1 17138:1 24459:1
27347:1 21274:1 11619:1 12651:1 10145:1 8356:1 10444:1
14294:1 18135:1 16159:1 19045:1 28188:1
1131:1 21831:1 2629:1 9949:1 15836:1
4347:1 12557:1 20194:1 9001:1 3951:1 10178:1 2137:1
1200:1 17975:1 18977:1 24838:1 18243:1 24768:1
3736:1 24003:1 17517:1 25267:1 947:1
3046:1 571:1 21651:1
563:1 2197:1 15466:1 18977:1
19814:1 15338:1 25524:1 19506:1 27103:1 19298:1
23118:1 10550:1 2847:1 2810:1 9855:1
14343:1 17389:1 5856:1 28332:1 439:1 28417:1 8675:1
16374:1 28122:1
23527:1 11868:1
27759:1 18977:1 26388:1 4643:1
3569:1 24791:1 19314:1 19793:1 16764:1
16631:1 69:1 15728:1
7545:1 1297:1 11497:1 11011:1
15768:1 18430:1 26817:1 12:1 21493:1 26646:1 15232:1
24868:1 1070:1
20741:1 17946:1 20370:1 13828:1 634:1 24499:1 7348:1
13463:1 24499:1 12545:1 8257:1 9027:1 10443:1
20912:1 12471:1 23901:1 527:1 12645:1 2468:1
12611:1 10901:1 27476:1 18430:1 28541:1 17193:1 680:1 9827:1
11494:1 1461:1 24896:1 15184:1 21613:1 12:1 24499:1 15922:1 16918:1
26748:1 8084:1 14194:1 1784:1 19564:1
14169:1 19539:1 10671:1 19134:1 11847:1
24301:1 7496:1 3916:1 13491:1 21590:1 24499:1 10444:1 25381:1
6792:1 6136:1 16241:1 13570:1
15247:1 28720:1 3411:1
26202:1 7748:1
19131:1 25010:1 11022:1 19884:1 5127:1 170:1 28417:1
14990:1 7145:1 28479:1
14931:1 26319:1 23549:1 23527:1 25216:1
24758:1 5256:1 8133:1 21144:1
10789:1 19217:1 2329:1 17138:1 24499:1 2630:1 19277:1 220:1 22394:1
8256:1 22504:1 5458:1 6093:1 20618:1 16399:1 12471:1 18843:1
27281:1 2596:1 11058:1 27809:1 25989:1
1538:1 2515:1 20730:1 10951:1 22884:1 27521:1
10272:1 1297:1 21436:1 28643:1 16631:1 4032:1 23204:1 3720:1
15868:1 28314:1 13926:1 27035:1 22567:1 25890:1 3918:1
6741:1 9498:1 16884:1 13064:1 6652:1
25105:1 21274:1 1839:1 13556:1 4415:1 16374:1 24944:1
15897:1 24791:1 22895:1 1131:1 21293:1 26404:1 16598:1
12658:1 8454:1 3570:1
28027:1 6398:1 20574:1 6302:1
10901:1 18430:1 26379:1 21257:1
17150:1 7705:1 19884:1 18989:1 24791:1 7664:1
3720:1 10614:1 14700:1 3033:1
26945:1 22249:1 20077:1 2642:1 16689:1 2810:1 4636:1 23029:1 27521:1
25973:1 1297:1 2765:1 8483:1 21613:1 6618:1 3991:1
10950:1 11095:1
11970:1 5992:1 28786:1 23011:1 11060:1
24013:1 3328:2 17425:1
4661:1 19506:1 8499:1 12237:1 8386:1 7411:1 16764:1
307:1 22905:1 118:1 24886:1 11738:1 5437:1 18184:1
17171:1 21436:1 23239:1 4628:1
7169:1 27468:1 16709:1 7411:1
17975:1 5010:1 16945:1 7830:1
8426:1 22206:1 11619:1 19884:1
365:1 303:1 20488:1 3441:1 21300:1 284:1
4415:1 19440:1 24656:1 18756:1 7714:1 7411:1
24499:1 2571:1 23755:1 20410:1 2561:1 23360:1
24301:3 3589:1 13908:1 16631:1 5563:1 19225:1
24499:1 995:1 626:1 13418:1
8972:1 11980:1 5524:1 3207:1
9976:1 10797:1 5532:1 15405:1 25839:1
16374:1 6000:1
10399:1 2443:1 10437:1 17947:1
23939:1 1297:1
25774:1 6854:1 16923:1 11619:1 20451:1
17975:1 5602:1 24095:1 12638:1 18977:1 19700:1 15417:1 565:1
16374:1 28122:1 25010:1 27646:1 2810:1 6960:1 27622:1 24499:1 2716:1 20687:1 9957:1
19836:1 377:1 877:1 14931:1 15355:1 13828:1 2716:1 3720:1
28643:1 1976:1 23705:1 14986:1 12973:1
7830:1 24337:1 27992:1 21993:1 23231:1 10443:1 13887:1
24459:1 19144:1 25665:1 17444:1 19025:1 28395:1 13843:1 17150:1 12471:1 21776:1 21613:1 24499:1 22310:1 15648:1
28003:1 12784:1 14500:1 563:1 10444:1 6093:1
3784:1 25094:1 9639:1 14016:1 1166:1
26165:1 2555:1 25611:1 22962:1
2328:1 15338:1 1632:1 8002:1 847:1
19566:1 12471:1 10408:1 24459:1 21290:1 27622:1 7597:1 13843:1
608:1 7432:1 2642:1 8205:1 24572:1 7404:1 25010:1 939:1 11664:1 9939:1
14305:1 27031:1 25010:1 4427:1 25299:1
28180:1 13054:1 1297:1 20786:1
14958:1 20978:1 17171:1 18155:1
28281:1 14343:1 21222:1 4924:1 347:1 13926:1
28281:1 14165:1 23485:1
24615:1 10277:1 17947:1 5933:1 27016:1 7714:1 21613:1
11997:1 8804:1 15869:1
23296:1 6787:1 13300:1
21274:1 12471:1 962:1 855:1 1253:1 28740:1 6302:1 16681:1
3007:1 1297:1 14451:1 14144:1 22924:1 10669:1 27035:1 26508:1 21613:1
947:1 20010:1 25267:1 7716:1
5148:1 10199:1 19126:1 12783:1 28314:1
26963:1 12783:1 1632:1 7138:1 3125:1 16155:1 220:1
4695:1 12563:1 24548:1 18845:1 21857:1 8794:1
13196:1 7412:1 19924:1 26136:1 16553:1
12831:1 1920:1
10950:1 12471:1 10901:1 14303:1 27314:1 13570:1
11468:1 17834:1 367:1 16013:1 11330:1
26165:1 5421:1 19277:1 28727:1
3226:1 17579:1 14550:1 24499:1 10696:1 6317:1
17143:1 14645:1 14626:1 7309:1 13276:1 27016:1
11095:1 13472:1 24074:1 24572:1 16713:1 25010:1 16155:1
2853:1 563:1 14906:1 4550:1 7348:1
17946:1 5115:1 12398:1 3186:1 16681:1 7348:1
5998:1 8280:1 9133:1 23837:1 25436:1
1297:1 1359:1 4842:1 1219:1 13926:1 9328:1
11694:1 5654:1 9133:1 18000:1 27975:1 13887:1
15916:1 19412:1 28417:1 4757:1 17318:1
21652:1 7215:1 27550:1 10569:1 814:1 13828:1
18893:1 23118:1 22917:1 27576:1 14404:1
20997:1 20835:1 13171:1
14351:1 575:1 17406:1 14478:1
6876:1 4618:1 10501:1 2463:1
16713:1 22806:1 9717:1 22587:1
5378:1 20903:1
1297:1 21613:1 14303:1 563:1 10444:1 10828:1 20687:1
20162:1 9072:1
12831:1 25707:1 8471:1
26963:1 17626:1 7411:1 25927:1 10444:1 16013:1
28664:1 26518:1 9620:1 25891:1 17947:1
2130:1 13367:1 448:1
1200:1 19641:1 10671:1 12638:1 4443:1 4161:1 5602:1 13887:1
18793:1 24458:1 17903:1 12193:1 13258:1 16764:1 15781:1
26937:1 24587:1 20562:1 12860:1 624:1 1184:1
25774:1 7716:1 25267:1 27576:1 14404:1
26156:1 21002:1 18608:1 13286:1 7716:1
12365:1 16884:1 6891:1
7040:1 27615:1 20393:1 14500:1 563:1 8356:1 220:1
22131:1 20772:1 17903:1 28621:1 1114:1 15806:1 24408:1
1839:1 16334:1 21879:1
12831:1 26061:1 5766:1
27622:1 15352:1 12806:1 14956:1 2810:1
3536:1 3527:1 10569:1 19564:1 15037:1
11057:1 27550:1 10569:1 3569:1 24499:1 17976:1
12894:1 14303:1 8017:1 9668:1 28200:1 9659:1
16080:1 13655:1 25932:1 6823:1
7642:1 4729:1 601:1
20238:1 9386:1 18027:1
17176:1 12471:1 24351:1 8302:1 8465:1 27046:1 21885:1 25547:1
16713:1 1714:1 220:1 25334:1 3560:1
1225:1 9634:1 13065:1 21613:1
17196:1 28554:1 15166:1 13423:1 11021:1 13529:1
7935:1 12953:1 6301:1 26889:1 10444:1 7939:1 703:1
7916:1 27975:1 17172:1 25176:1 26050:1
24836:1 20006:1 7889:1 8767:1 1659:1 12068:1
12831:1 784:1 13046:1 8803:1
19641:1 18351:1 20370:1 11922:1 634:1 8302:1 13828:1 19653:1 13887:1 14854:1
17710:1 17305:1 19277:1 2810:1 563:1 18793:1 10810:1 21012:1
5678:1 17662:1 9513:1 5576:1 10424:1 14076:1 1018:1
5449:1 4343:1 21653:1
1864:1 16239:1 3268:1
14409:1 27420:1 26220:1 20419:1
26156:1 20707:1 10444:1 7728:1
21683:1 5671:1 24499:1 14185:1 15226:1
21710:1 23296:1 5575:1
21274:1 27498:1 13479:1 4577:1 2810:1 4636:1 5485:1 28676:1
11724:1 2015:1 26363:1 13887:1 19169:1
10817:1 8257:1 5087:1 14489:1
7535:1 1366:1 2810:1 1717:1 19672:1 9326:1 19884:1
8804:1 5024:1 9313:1 28030:1 2423:1
19322:1 4443:1 25697:1 563:1 7502:1 24791:1 13926:1
28417:1 26379:1 23291:1 9532:1 28570:1 6309:1 25524:1 21390:1
15983:1 1297:1 6699:1 2989:1 6136:1
18552:1 18561:1 2642:1 27135:1 14303:1 10521:1 6136:1 24499:1
12849:1 3191:1 27725:1 24591:1
2443:1 18608:1 13887:1 18977:1 24564:1
21274:1 22895:1 9399:1 4392:1 26845:1 5703:1
18628:1 20281:1 17311:1 6960:1 5895:1 1723:1 2283:1
18486:1 27906:1 28479:1 21525:1 28229:1 9271:1 8675:1
16374:1 6000:1
14906:1 6923:1 20352:1 10817:1 1219:1 3994:1
4065:1 8302:1 14189:1 9982:1
18806:1 7439:1 12471:1 1616:1 7189:1 8205:1 13843:1
26901:1 18646:1 13887:1 13828:1
21613:1 9532:1 21180:1 22862:1 25536:1
23296:1 17495:1 1297:1 7107:1
14303:1 3266:1 20010:1 1225:1 20237:1 6269:1 15836:1 16711:1 2062:1 220:1 23705:1
4332:1 25558:1 4368:1 28186:1 5841:1 25267:1 27448:1
28281:1 3191:1 22662:1 24759:1 15733:1 25811:1
782:1 10036:1
14360:1 3266:1 220:1 14303:1 22971:1 7748:1 10199:1 20237:1 19817:1
23284:1 14548:1 19450:1 21012:1 10444:1 7348:1
20992:1 11930:1 18977:1 23015:1 563:1 18793:1 12783:1
5602:1 5010:1 16680:1 20353:1 19884:1 27077:1 5866:1
27622:1 601:1 2488:1
14550:1 18585:1 15988:1 13648:1 19884:1
1297:1 27425:1 24459:1 11259:1 15836:1
9110:1 21076:1 28417:1 3334:1 28522:1
27709:1 2579:1 25890:1 18743:1
24236:1 4186:1 24499:1 24200:1 24548:1 21493:1 19102:1 15815:1
10771:1 8664:1 19906:1 25334:1 24289:1
2853:1 24216:1 24074:1 1148:1 4636:1 22354:1
5077:1 18793:1 5703:1 21109:1 7546:1
13926:1 23037:1 6644:1 9595:1 26482:1
12471:2 10810:1 4751:1 7197:1 13843:1 19911:1 27251:1 19211:1 27216:1
22102:1 7432:1 11106:1 19203:1 14515:1 3569:1 22310:1 17961:1
11589:1 8449:1 28734:1 13196:1 22960:1
14906:1 27550:1 28414:1 10569:1 8698:1 24247:1 13186:1 12783:1
13472:1 19884:1 16713:1 10145:1 7649:1 11637:1
26363:1 18000:1 1297:1 1242:1 21569:1
12831:1 4415:1 21076:1 20574:1 16879:1 21357:1 26098:1 19231:1
8972:1 26897:1 11824:1 1632:1
16008:1 20547:1 13619:1 14525:1
6796:1 1207:1 13828:1 26379:1 17138:1 12954:1 3395:1
23374:1 25339:1 24499:1 23755:1 20688:1 11379:1
16374:1 5378:1 20903:1
28281:1 26963:1 18608:1 26299:1 3186:1 22354:1 20255:1
2008:1 21252:1 17172:1 14689:1 11969:1 1623:1 20773:1
22637:1 17457:1 5644:1 23962:1
8197:1 22737:1 14214:1 26963:1
17975:1 15802:1 21613:1 27770:1 4897:1 4399:1
15174:1 12790:1 18977:1 2853:1
2956:1 13025:1 26136:1 1685:1 13186:1
12208:1 1793:1 17144:1 4020:1 23834:1
9976:1 4854:1 7040:1 6093:1 4745:1 9859:1 12783:1
8844:1 22258:1 3572:1
16713:1 10569:1 19902:1 381:1 15031:1
21954:1 24173:1 19884:1 2461:1 19151:1 9052:1 19653:1 8581:1 12860:1
10453:1 27441:1 11814:1 13693:1 17947:1
13687:1 15739:1 10199:1 22994:1 21815:1 2847:1
12831:1 14918:1 12471:1 1920:1 16537:1 220:1
28452:1 1827:1 163:1
19835:1 19921:1 7830:1 14270:1 17617:1 2463:1
26786:1 19506:1 13430:1 12954:1 21300:1 20877:1
2984:1 2810:1 10562:1 27742:1 1394:1 9271:1
1072:1 24499:1 24564:1 847:1
21613:1 11719:1 13165:1 12404:1 13300:1
2956:1 7411:1 25231:1 7885:1 6823:1
11327:1 20841:1 11997:1
21879:1 1297:1 16923:1 26461:1 8302:1 8465:1
4636:1 4415:1 25547:1 4550:1 13728:1
13912:1 1297:1 7294:1 17666:1
6007:1 6309:1 5936:1 26508:1 13993:1 1124:1
9549:1 24814:1 16374:1 18645:1 21190:1 20687:1
608:1 7830:1
26833:1 26518:1 1070:1 5660:1
19442:1 21613:1 17138:1 27809:1 4805:1
7648:1 20992:1 1297:1 21708:1 11832:1
17749:1 16620:1 2599:1 11836:1 26478:1
14828:1 24459:1 4392:1 25583:1 9594:1 16817:1 10444:1 220:1
12860:1 21539:1 23871:1
10444:1 9328:1 4716:1
1723:1 14100:1 18235:1 10199:1
12831:1 28621:1 18460:1 3589:1 2209:1
1163:1 10521:1 4989:1 4577:1 22721:1
25890:1 2127:1 220:1 11273:1 26247:1
14099:1 26588:1 18977:1 813:1 24572:1 23705:1 3191:1
28027:1 27611:1 26156:1 16863:1 3431:1 17294:1
27622:1 5461:1
3176:1 14285:1 11619:1
21171:1 3372:1 9659:1 28188:1 25555:1
11253:1 14689:1 574:1 786:1 116:1 27354:1
3191:1 19884:1
11784:1 14409:1 24499:1 9058:1 15174:1 1297:1 13500:1 625:1
16864:1 12471:1 25465:1 21312:1 106:1 5738:1 6136:1 15246:1 19045:1
10353:1 5398:1 27521:1 10444:1 13887:1 17666:1
6044:1 16011:1 18977:1 634:1 13728:1 13300:1
26932:1 8215:1 24988:1 19564:1 21954:1 17090:1 14089:1
25048:1 10444:1 9532:1 2989:1 11969:1
15013:1 28468:1 7100:1 8182:1 7196:2 21407:1
10777:1 4932:1 18589:1 17863:1 28229:1 11968:1
17176:1 14838:1 23124:1
18848:1 571:1 19085:1 26845:1 13887:1
17975:1 2054:1 2229:1 7830:1 23955:1 2316:1 4635:1
12790:1 22354:1 3804:1 28060:1 17975:1
4441:1 25021:1 7901:1 21002:1
17210:1 24587:1
20511:1 12557:1 3991:1 14451:1 6302:1 16764:1 19168:1
26963:1 17834:1 18608:1 27486:1 27622:1 12334:1 1906:1
9133:1 10199:1 23957:1 18063:1 16912:1
28391:1 18581:1 2810:1 16374:1 6302:1 28417:1 28676:1 15205:2
16860:1 17644:1 17115:1 7714:1 2584:1 21525:1
10569:1 21336:1 14365:1
24048:1 17834:1 19241:1 24459:1 9418:1 18306:1 12190:1 21292:1
4146:1 14525:1 26051:1 4238:1 7759:1
9133:1 23541:1 20353:1 19855:1 21047:1
680:1 17425:1 25256:1 16199:1
19884:1 18186:1 16764:1 1253:1
16776:1 18561:1 7830:1 14351:1 14546:1 23705:1 13887:1 22021:1
21710:1 1297:1 16879:1 6093:1 2561:1 6864:1
413:1 563:1 11264:1
18486:1 1297:1 11619:1 27135:1 8048:1 15984:1 13086:1
11969:1 24768:1 13529:1 15431:1 7348:1
8426:1 20122:1 15752:1 22931:1 26975:1 25738:1
23955:1 2741:1 17196:1 17730:1 27135:1 7264:1
8426:1 12790:1 11026:1 11170:1 13749:1
2956:1 17975:1 7830:1 6545:1 28395:1 8426:1 3589:1
8877:1 4588:1 13691:1 2810:1 16221:1 7348:1 13186:1 25267:1 16553:1
15130:1 17193:1 16693:1 2920:1
24768:1 24231:1 3062:1 522:1 27502:1 25010:1 13032:1 19126:1
21076:1 26189:1 13887:1 24768:1
14986:1 21799:1 24499:1 16598:1 6865:1 1685:1
13887:1 17425:1 25454:1 4477:1 15575:1 27230:1 16413:1
4443:1 10950:1 3328:1 634:1 21803:1 13887:1 27383:1
7639:1 26963:1 14906:1 16884:1 5327:1
3685:1 24499:1 9020:1 1840:1 20632:1 552:1 11934:1 19286:1 13171:1
13082:1 1297:1 18756:1 18977:1 2810:1 26134:1 10525:1 13691:1
12:1 17541:1 3804:1
22042:1 11619:1
15291:1 13361:1 26220:1 10444:1 28693:1 23884:1
28598:1 22637:1 8284:1 18008:1 20511:1
10810:1 3283:1 2810:1 27622:1 18793:1 10919:1
26156:1 24836:1 24050:1 24967:1 9948:1
4550:1 14906:1 3441:1 13749:1 1245:1 634:1 16013:1
27975:1 25055:1 13887:1
4149:1 12471:1 3926:1 26165:1 5449:1 1053:1 7121:1
25203:1 18430:1 8639:1 27809:1 16667:1
20781:1 25078:1 2579:1 2642:1
25964:1 5024:1 9313:1 24593:1 2810:1 27622:1
7608:1 17731:1 1407:1 19180:1 22605:1 9301:1
6098:1 3349:1
15464:1 8640:1 458:1 18863:1
3720:1 1297:1 24594:1
5378:1 20903:1
11253:1 21416:1 15495:1 7711:1 24161:1
1200:1 17975:1 19159:1 20353:1 7830:1 24859:1
5002:1 21302:1 21436:1 7087:1 563:1 12068:1
3991:1 24768:1 19275:1 3804:1 25334:1 7348:1
3027:1 12852:1 10156:1 16080:1 7786:1 19656:1
25558:1 25301:1 11689:1 21613:1 220:1 24839:1
8336:1 1131:1 24459:1 9260:1 2555:1
8748:1 8877:1 8257:1 14946:1 3569:1 24499:1 12471:1
20877:1 5790:1 2443:1 22746:1 22567:1 27521:1
26867:1 16143:1 13092:1 17138:1
4443:1 13472:1 15309:1 7466:1 19653:1 23705:1 13887:1
26:1 14906:1 11022:1 25010:1 24202:1 3252:1
17463:1 4822:1 8411:1 19450:1
14099:1 8133:1 5886:1
18239:1 14587:1 10783:1 27759:1 21178:1 1868:1
16128:1 9949:1 3589:1 19345:1 16085:1 16015:1 13186:1
25068:1 25558:1 20735:1 7131:1 2044:1
27077:1 3007:1 18170:1 13504:1 19495:1 12645:1
17975:1 3589:1 14986:1 7466:1 239:1 18243:1 16680:1
2956:1 13749:1 22374:1 18121:1 10569:1 3234:1
18876:1 22592:1 25982:1
16872:1 1074:1 3017:1
17972:1 24236:1 14515:1 1499:1
27853:1 10595:1 471:1
19134:1 26847:1 7728:1 7466:1 439:1 16713:1 11637:1
4186:1 27837:1 26461:1 8302:1 3713:1 18124:1 7348:1
2054:1 24846:1 10569:1 28417:1 26508:1 24007:1
18191:1 28621:1 16325:1 947:1 24221:1 25334:1
12395:1 1442:1 25010:1 17897:1 12068:1
19585:1 16565:1 27052:1 28191:1 8302:1 10444:1
18646:1 16060:1 24768:1 7716:1 16945:1 13887:1
9348:1 4238:1 13881:1 847:1 13276:1 8202:1 20010:1 27259:1
105:1 28487:1 19275:1 18306:1 24499:1 26472:1
17786:1 18858:1 4649:1 16475:1 24791:1 24213:1 17666:1
2642:1 24591:1 2242:1 1733:1 3437:1
20214:1 21226:1 16200:1 8133:1 22394:1
9517:1 3007:1 20242:1 8681:1 24499:1 13338:1
16374:1 28122:1
2956:1 10950:1 13833:1 10444:1 13887:1
12894:1 8906:1 2203:1 13728:1 1840:1 21012:1
13687:1 5745:1 13165:1 2810:1
26165:1 8660:1 20370:1 19653:1 7830:1
4195:1 16894:1 22206:1 10444:1 23239:1 22418:1
17150:1 1678:1 7330:1 17947:1 21356:1 9498:1
11022:1 6007:1 1717:1 9711:1 7748:1 13452:1
26461:1 8302:1 28417:1 5961:1 14076:1
24367:1 13938:1 9957:1 20634:1 4932:1
3007:1 1297:1 7714:1 14297:1 21613:1 24499:1 21525:1 19211:1 6920:1
11468:1 27397:1 9123:1 16133:1
6292:1 20010:1
17492:1 15742:1 12471:1 15046:1 13926:1 20874:1 16872:1 28295:1 25010:1 21356:1 14139:1
12831:1 15177:1 25927:1 21837:1
22028:1 12068:1 9334:1 18172:1
15933:1 24324:1 5115:1 8813:1 27962:1
449:1 23705:1 13086:1 22535:1
6279:1 9532:1 23553:1 11969:1
14343:1 3575:1 11637:1 25521:1
9827:1 855:1 10950:1 24572:1 24768:1 13887:1
19169:1 12471:2 10444:1 24465:1
13688:1 2741:1 12745:1 12471:1 11649:1 16631:1 24499:1 7348:1
8838:1 12693:1 9133:1 4195:1
4932:1 25010:1 11022:1 18977:1 27521:1
16820:1 563:1 15167:1 26508:1 17774:1 25547:1
8412:1 3572:1 4026:1
15297:1 10849:1 5115:1 14525:1 18366:1 25326:1 15237:1
10810:1 11619:1 20393:1 2810:1 563:1 3569:1 8200:1 13141:1 7348:1
12675:1 18124:1 2037:1 7348:1
2106:1 21356:1 8155:1 17884:1 10444:1 22418:1
28621:1 21076:1 28417:1 8302:1
1072:1 24231:1 1996:1 25561:1 10444:1 9301:1
22848:1 7956:1 25547:1
24572:1 10444:1 20904:1 24499:1 6923:1
16452:1 25015:1
2475:1 2178:1 4798:1 6171:1 17138:1 10444:1 3963:1 220:1
6073:1 947:1 18793:1 19159:1 6371:1
25541:1 16879:1 28314:1
12790:1 10855:1 8530:1 11637:1 1131:1
5602:1 18977:1 25270:1 563:1 23960:1 10443:1 19001:1
21877:1 951:1 9406:1 4635:1 8197:1 25547:1 24180:1 5617:1
16477:1 20334:1 24584:1 26351:1
12831:1 9238:1
13926:1 9406:1 9119:1 9271:1 26328:1
28027:1 18858:1 16863:1 20728:1 7786:1 8660:1
27700:1 2299:1 1996:1 5449:1 26518:1 13887:1 10091:1
14456:1 27471:1 10826:1 26014:1 28399:1
25094:1 26611:1 20953:1 27975:1 10443:1 15031:1
26156:1 18114:1 24492:1 17686:1
15868:1 9123:1 26490:1 11262:1
10901:1 12471:1 28359:1 21788:1 4848:1 3186:1 9133:1 6314:1
5603:1 9123:1 8356:1 1297:1 8510:1
28027:1 25964:1 5277:1 14649:1 24593:1 2810:1
19836:1 15371:1 1297:1 17193:1 680:1 20716:1 20194:1 24038:1 24499:1 2462:1 13887:1
4276:1 21222:1 23507:1 6186:1 12566:1
18308:1 18536:1 23837:1 10444:1 27171:1 24499:1 23512:1 21075:1 18155:1
18114:1 12471:1 17903:1 26156:1 27487:1 9717:1 18793:1 21416:1 24492:1
23518:1 4415:1 12852:1 8017:1 2810:1 3027:1 18793:1 10828:1 5727:1 13276:1
16534:1 26106:1 16374:1 18306:1 26120:1 12022:1 2690:1
24050:1 10437:1 6839:1 23118:1
2387:1 26963:1 7786:1 19519:1 11934:1 17324:1
8681:1 21745:1 25340:1 11969:1
13128:1 2453:1 1244:1 5449:1 24499:1 4035:1 9406:1 25912:1
6087:1 2956:1 11689:1 11637:1 10850:1
769:1 2197:1 13452:1 17974:1 18645:1 25547:1 10443:1 3720:1
19735:1 12471:1 9702:1 11906:1 9406:1 10845:1 25835:1
5024:1 9313:1 18308:1 5747:1 10250:1 10444:1 12783:1
683:1 8193:1 15202:1 14112:1
18907:1 1283:1 20212:1 10560:1 27272:1 27521:1
10950:1 22847:1 20370:1 26688:1 24791:1 19653:1 13186:1 5115:1
26963:1 8412:1 2127:1 23685:1 10444:1 28053:1
6371:1 10569:1 13207:1 3186:1 6159:1 6635:1 12449:1 17308:1
28417:1 20190:1 24499:1 28716:1 4448:1
22982:1 20992:1 1297:1 10244:1 7648:1 12658:1 6302:1 25010:1
28027:1 8877:1 751:1 17270:1 25262:1 21219:1 3681:1
19322:1 10277:1 28643:1 14896:1 28003:1 563:1 24791:1 18811:1
17176:1 10614:1
25600:1 7102:1 24591:1 13852:1 4443:1
17975:1 8764:1 8412:1 4120:1 21831:1 12471:1 22493:1
24615:1 19426:1 6589:1
28318:1 21591:1 24095:1 10569:1 3186:1 6186:1 10444:1
28643:1 12545:1 26518:1 4415:1
17458:1 10665:1 898:1 27805:1 15781:1
13749:1 27314:1 10256:1 10482:1 20242:1
16884:1 9133:1 21338:1 12807:1 11652:1 25010:1 8675:1
3191:1 13926:1 1297:1 19884:1
9498:1 25184:1 3740:1 27160:1 9359:1 687:1
8141:1 1297:1 220:1
27700:1 17975:1 27004:1 16680:1 7466:1 13739:1 26205:1
28122:1 24331:1 1819:1 21338:1 27742:1 16374:1 8691:1 3139:1 220:1
19566:1 6371:1 12471:1 8136:1 2810:1 4942:1 21613:1 18793:1 28676:1
14931:1 13934:1 22567:1 17777:1 5790:1
6521:1 27622:1 18676:1 26508:1 26011:1
11205:1 9006:1 8648:1 6473:1 13885:1
7716:1 19884:1 9949:1 11150:1 4649:1
26461:1 25964:1 1297:1 8302:1 14111:1 16872:1
19314:1 4357:1
17196:1 11689:1 21730:1 3713:1 10742:1 6740:1 18155:1
8264:1 5449:1 10569:1 16681:1 11154:1 22093:1
3191:1 619:1 14214:1
8426:1 14424:1 2505:1 4477:1 15781:1
17740:1 6876:1 20326:1 8030:1 13054:1 13887:1
11620:1 7585:1 10277:1 20186:1 2316:1 12783:1
10671:1 377:1 13186:1 26098:1
4443:1 5115:1 19653:1 12843:1
8386:1 3930:1 18216:1 12370:1 7697:1
24471:1 13887:1 18843:1 1659:1 25010:1 26136:1 850:1
16565:1 5703:1 18155:1
18793:1 6253:1 2810:1 9855:1 4843:1 7540:1 26107:1 14649:1
9774:1 18667:1 9328:1 13926:1 16374:1 14910:1 7673:1 27946:1 11597:1 28479:1
21274:1 12750:1 13276:1 27272:1 8463:1 23048:1
6371:1 14903:1 13255:1 21002:1 16080:1 7648:1 24173:1 5176:1
21633:1 25301:1 13452:1 9133:1 3876:1 439:1 13752:1
26719:1 14306:1
12907:1 25010:1 18667:1 24499:1 20850:1 25299:1 20343:1
19892:1 17196:1
19322:1 2143:1 15039:1 7714:1 10444:1 15616:1 28387:1 12471:2 10852:1
24838:1 10806:1 4443:1 17664:1 1411:1 22847:1 27521:1
22118:1 21539:1 3385:1 16713:1 16155:1 16015:1
1727:1 769:1 3572:1 28040:1 13975:1
25916:1 4415:1 10444:1 12306:1 9334:1
12831:1 1920:1
3981:1 17995:1 14990:1 12474:1
17176:1 25589:1 25010:1 27135:1
3720:1 6279:1 11606:1 2677:1
15063:1 26833:1 23296:1 16081:1 9406:1 13300:1
26963:1 28718:1 2677:1 8560:1 25010:1 27975:1
27992:1 3569:1 25094:1 13887:1 7466:1
14010:1 21665:1 17893:1 4448:1 687:1
22205:1 15435:1 11452:1 19906:1 3105:1
15044:1 24936:1 2197:1 16923:1
28716:1 7714:1 10444:1 15616:1 23146:1 27015:1 15869:1
17196:1 5635:1 19906:1 14753:1 20839:1 24499:1 220:1
14689:1 6007:1 1273:1
26890:1 12015:1 4186:1 12557:1 17176:1 14303:1 3806:1 26508:1
2648:1 9367:1
18685:1 7009:1 21525:1 6396:1
18977:1 2810:1 21154:1 28676:1 681:1 27521:1
25010:1 15237:1 13054:1 7697:1 19134:1 4266:1
28281:1 6371:1 7714:1 9594:1 6302:1 11733:1
8197:1 10480:1 25010:1 4902:1 1990:1
11547:1 2853:1 12831:1 19363:1 9476:1 28404:1 13887:1 18155:1
8872:1 7466:1 13749:1 4618:1 18793:1 10465:1 5176:1
11868:1 3062:1 27272:1 20465:1 1103:1
3027:1 18114:1 16680:1 16863:1 24493:1 28605:1 27499:1
127:1 16680:1 7244:1 7348:1
11934:1 22468:1 4599:2 634:1
3616:1 13238:1 15778:1 28136:1
683:1 855:1 22503:1 2328:1 16681:1 23845:1
1245:1 28002:1 14772:1 21949:1
24258:1 7624:1 2810:1 27759:1 12:1 25290:1 25334:1
11619:1 13186:1 23513:1 22895:1 24499:1 11467:1 11637:1 14365:1
10016:1 25094:1 6314:1 8582:1 16081:1
4882:1 17975:1 563:1 13452:1 14500:1
21427:1 3713:1 1297:1 13255:1 10288:1
11542:1 8459:1 7889:1
21226:1 24791:1 1297:1 27165:1 13191:1 1225:1 16200:1 13691:1 4677:1 28295:1
11645:1 8411:1 27622:1 1245:1 2463:1 16290:1 18155:1
16297:1 11704:1 14064:1
1225:1 4276:1 19275:1 24791:1 1531:1
25094:1 1297:1 18756:1 24623:1 28643:1 9547:1
18806:1 26963:1 307:1 24074:1 563:1 25010:1 13887:1
20992:1 7608:1 14872:1 22848:1 11769:1 7546:1
16713:1 10444:2 2561:1 23497:1 26963:1
995:1 4757:1 6930:1 3484:1 24499:1 10443:1
20992:1 18308:1 7714:1 20351:1 6594:1 12783:1
22808:1 4403:1 28136:1 847:1
16374:1 2690:1 6626:1 19094:1
7153:1 26945:1 13529:1
24433:1 2586:1 21885:1 1297:1 11689:1
14931:1 251:1 21044:1 3572:1 16945:1
28461:1 14169:1 13141:1 19302:1 1614:1 439:1 28643:1 27506:1 10444:1 15001:1 27548:1
24062:1 3484:1 23837:1 3280:1 4636:1 12726:1 20913:1 22418:1
27160:1 21158:1 23296:1
1738:1 10444:1 1559:1 4015:1
12470:1 21076:1 13887:1
15730:1 5844:1 4601:1 3725:1 5011:1 12783:1 27251:1
18636:1 19835:1 110:1 20180:1 10828:1
19412:1 5187:1 9287:1 17419:1 9509:1 27521:1
14490:1 23837:1 19884:1 14030:1 14016:1 6963:1 25016:1
7220:1 8056:1 8179:1 28229:1 18756:1
20685:1 13045:1 1297:1 1616:1 25615:1 751:1 21991:1 2062:1 19732:1
7842:1 6326:1 16290:1 15237:1
17975:1 24050:1 25301:1 13887:1 18977:1 6186:1 12471:1 9827:1
21879:1 19564:1 25945:1 21942:1 9915:1 10828:1 24180:1
9515:1 25558:1 24451:1 17075:1 24095:1 16481:1 16015:1 13887:1 7546:1
13134:1 2015:1 13084:1 1320:1 9532:1
14265:1 20268:1 4169:1 855:1 19709:1 2683:1 28359:1 9406:1 2299:1 27520:1
23673:1 6674:1 12471:1 14303:1 26624:1 17721:1 21483:1
24791:1 17666:1 20772:1 20010:1 24408:1
18191:1 23987:1 9532:1 19134:1 6482:1
5024:1 9313:1 7716:1 27622:1 11934:1 23719:1
6087:1 3811:1 6025:1 25738:1
19539:1 13619:1 28730:1
4297:1 25801:1 22050:1 6922:1 11637:1
18322:1 7793:1 15147:1 2810:1 10444:1 28676:1 13048:1
13128:1 11792:1 5280:1 10828:1 13887:1 855:1
25600:1 1297:1 11619:1 13945:1 28643:1 17318:1
14930:1 19057:1
5256:1 3569:1 8257:1 10828:1 10443:1
21300:1 9453:1 27211:1 9406:1 18155:1
10363:1 686:1 19169:1 1245:1 7348:1 7939:1 27272:1
8171:1 19566:1 14587:1 13556:1 24195:1 27135:1 19835:1
18472:1 14364:1 12471:1 19256:1
4146:1 10695:1 23610:1 6823:1
17196:1 18870:1 27135:1 16747:1 20915:1 4238:1
9006:1 17358:1 28410:1 1412:1 22315:1 26381:1 26500:1
26508:1 25462:1 8646:1 4061:1 18150:1 6309:1
8748:1 18561:1 24621:1 13887:1 5253:1
25600:1 6661:1 9328:1 20975:1 10605:1
11808:1 14087:1 12471:1 26618:1 1131:1 24945:1 15432:1 16155:1 27086:1 220:2 21012:1
16631:1 20811:1 21563:1 24311:1
7439:1 15802:1 21954:1 18195:1 3594:1 26043:1
26534:1 21613:1 13:1 19183:1 14422:1 27809:1
10444:1 18243:1 4932:1 22604:1 25267:1
14548:1 4097:1 939:1 26379:1 16863:1 10199:1 3194:1 13828:1
22354:1 4415:1 10835:1 27114:1
6044:1 21412:1 18061:1 13472:1 23296:1 7197:1 21525:1 27352:1 13650:1 5322:1 23243:1
9406:1 20370:1 3252:1 2810:1 18743:1 3295:1 27837:1 2541:1 1375:1 7748:1
27622:1 24499:1 24593:1
24882:1 24612:1 21935:1 14579:1 10444:1 5871:1 220:1
8302:1 8151:1 5115:1 7348:1
468:1 25094:1 10597:1 14809:1 2810:1 1131:1 7288:1 24173:1 15836:1
3191:1 16740:1 13926:1 1297:1 7830:1
27992:1 15105:1 7680:1 10444:1 14365:1
22354:1 19314:1 28404:1 13887:1 28053:1
25932:1 13655:1 12:1 8069:1 17138:1 11262:1 3190:1
26611:1 1461:1 17903:1 25462:1 27997:1 4636:1 27853:1 18455:1
24572:1 17871:1 18261:1 8733:1 28705:1 25010:1 6621:1
25411:1 1320:1 10444:1 21314:1 18977:1
2741:1 6098:1 1840:1 20010:1 11262:1 24196:1
17498:1 14926:1 24768:1 9532:1 12068:1 1440:1 15353:1
17881:1 8197:1 17314:1 12783:1 10901:1 199:1 25334:1
11750:1 14931:1 6891:1 26319:1 1824:1 23527:1 28454:1
26963:1 18402:1 17695:1 7412:1 3186:1 2131:1 8794:1
12831:1 12:1 21879:1
14343:1 17877:1 17317:1 8129:1 7092:1 6481:1
14068:1 20992:1 26508:1 20207:1 1253:1
4415:1 2370:1 18756:1 24731:1 13276:1 14022:1
12384:1 16713:1 19884:1 18667:1 3186:1
16374:1 28122:1
9446:1 7147:1 10569:1 7830:1 21266:1
527:1 7496:1 823:1 14847:1
1225:1 14214:1 16325:1 6302:1 9461:1 11262:1 11997:1
26199:1 1960:1 13065:1 8202:1 2894:1 5970:1
12831:1 28238:1 2642:1 24722:1 9685:1
16374:1 28122:1
1570:1 20912:1 9400:1 19332:1 15585:1 16666:1
11513:1 2642:1 13361:1 27218:1 4636:1 25010:1 2914:1
334:1 5115:1 20370:1 21954:1
24572:1 18876:1 22864:1
17442:1 1297:1 20518:1 24933:1 18924:1 10951:1 25547:1
12286:1 26211:1 11619:1 25334:1 4577:1
18155:1 4415:1 21236:1 12973:1 23059:1 13887:1 25547:1
24999:1 3725:1 3804:1 24344:1 20687:1
5395:1 24572:1 9513:1 20624:1 2810:1 6037:1 24173:1
24413:1 24499:1 12471:1 20728:1 17138:1
27936:1 15855:1 22567:1 10199:1 13926:1 9880:1 7348:1
9333:1 3525:1 25010:1 8893:1 26447:2 19172:1
19518:1 5461:1 6815:1
26761:1 1118:1 1359:1
2853:1 24722:1 14500:1 21613:1 1812:1 16954:1
9333:1 13165:1 15648:1 12963:1 10291:1 21613:1 25470:1 6573:1 13443:1 18477:1
12471:1 995:1 8133:1 21290:1 28632:1 16864:1 20518:1 13843:1
20912:1 25336:1 9123:1 10465:1 8764:1
17635:1 7608:1 17947:1 13828:1 9406:1 9638:1
12471:1 5981:1 2121:1 8302:1 21613:1 4875:1
12471:1 1297:1 3203:1 11997:1 2196:1 13854:1
2329:1 7830:1 13186:1
14343:1 27077:1 22867:1 20605:1 13728:1
2121:1 24178:1 23552:1 13926:1 19227:1 14602:1 7424:1 12471:1 2344:1 21464:1 17774:1 27230:1
5139:1 21879:1 4213:1 24895:1 3804:1 4011:1
27366:1 14076:1
19412:1 24144:1 6641:1 18845:1 17666:1
8257:1 24612:1 7697:1
3575:1 20051:1 1297:1 20992:1
20370:1 28314:1 6494:1 25010:1 11637:1 26098:1 19884:1
22118:1 22847:1 25558:1 4507:1 21594:1 14303:1 24768:1
5678:1 10996:1 17138:1 12807:1 18756:1 10613:1 8584:1 7335:1
10901:1 6247:1 27135:1 1297:1 13210:1 24623:1 8302:1 18502:1
7603:1 27487:1 14525:1 2534:1 18155:1
16221:1 6314:1 8582:1 8726:1 7348:1
10147:1 3484:1 26793:1 8207:1
4415:1 1053:1 1297:1 9006:1 26098:1
20370:1 24591:1 306:1 1297:1 18793:1 9301:1
19872:1 22110:1 23118:1 26461:1 8302:1 19211:1
28125:1 19066:1 20010:1
20351:1 9384:1 2054:1 25492:1 13926:1
7648:1 12852:1 12471:1 24050:1 27959:1 26156:1 4097:1 5732:1
20632:1 2121:1 19884:1
10977:1 6526:1 27809:1
23813:1 1297:1 9265:1 11104:1 26461:1 8302:1 13042:1 20084:1
8528:1 21274:1 3027:1 10444:1 22567:1
3186:1 21274:1 12471:1 7412:1 3589:1 7714:1 22829:1 3569:1 23146:1 6066:1
16221:1 5703:1 12819:1 14979:1
12831:1 5790:1 7716:1 20958:1 6136:1 26508:1
12522:1 18083:1 8302:1 26461:1 21186:1 18155:1
5602:1 23764:1 2058:1 7830:1 17162:1 17617:1
10950:1 10810:1 4129:1 3186:1 9532:1 2810:1 14990:1
6818:1 20752:1 3589:1 10929:1 8257:1 220:1 20807:1
20632:1 3227:1 14222:1 25979:1
4932:1 13165:1 24593:1 16060:1
16374:1 28122:1 18186:1
2130:1 15341:1 25462:1 9855:1 1840:1 19641:1 2810:1 25267:1
26577:1 16232:1 17193:1 2852:1 13821:1 21181:1
9461:1 2853:1 10835:1 16938:1
6274:1 18114:1 9457:1 7830:1
18992:1 6594:1 7423:1 18308:1 7714:1
9880:1 4932:1 4942:1 15177:1 6875:1 8219:1 21831:1 7348:1
26748:1 27975:1 10444:1 3186:1 22885:1 2541:1 16013:1
28027:1 11264:1 13122:1 3328:1
8972:1 849:1 23191:1 847:1
13687:1 563:1 10828:1
4128:1 22637:1 7728:1 15730:1 6309:1 7939:1 13887:1 21421:1
7648:1 25124:1 19811:1 24745:1
25010:1 3804:1 11022:1 27216:1
5198:1 5153:1 14793:1 11719:1 1850:1
12471:1 15730:1 3186:1 17676:1 24768:1 10444:1 25381:1
27008:1 9406:1 24768:1 847:1 1538:1 23213:1 20300:1
25790:1 8478:1 17317:1 9400:1
10569:1 12726:1 3484:1 6773:1
1394:1 3713:1 1297:1 23380:1 4015:1
19939:1 11022:1 13828:1
20982:1 7348:1 26319:1 13276:1 28417:1 4875:1 22454:1 18155:1
947:1 18793:1 23424:1 27622:1
7264:1 20912:1 24615:1 9406:1 10443:1
17695:1 16923:1 20839:1 16631:1 3861:1 13887:1
16221:1 2137:1 1717:1
20877:1 5790:1 12399:1 563:1 1814:1 9532:1 22746:1 28625:1 11150:1
24196:1 14587:1 1655:1 19835:1 10444:1 13207:1
25105:1 21436:1 16923:1 7309:1 1253:1 14303:1 5254:1
15045:1 6302:1 15260:1 5449:1
20752:1 1642:1 1297:1 27304:1 27745:1 9123:1
19835:1 13171:1 7830:1 4051:1 3811:1 25010:1 220:1 7466:1
9374:1 871:1 18608:1 9513:1 18977:1 4577:1 19345:1 4439:1
27512:1 10783:1 26793:1 4718:1
6292:1 20010:1
22354:1 27521:1 25547:1
4854:1 5678:1 7728:1 4163:1 20404:1 15991:1
18608:1 14165:1 16764:1 16038:1
4606:1 3127:1 20814:1 7861:1 9406:1 2019:1
6410:1 27031:1 25010:1 15367:1
3633:1 1732:1 19564:1 8275:1 17411:1 9532:1 847:1 17947:1
24768:1 24499:1 22097:1 26247:1 2197:1
19264:1 27176:1
17975:1 25558:1 15806:1 24768:2 494:1 10581:1
13598:1 6000:1 20393:1 7087:1 23758:1 8889:1 7147:1 2561:1
25871:1 2733:1 22135:1 4757:1 27168:1 10186:1 2463:1
17881:1 15338:1 10444:1 12930:1
6186:1 21431:1 11590:1 7348:1
28281:1 16713:1 2299:1 24791:1 12849:1
23040:1 26518:1 6309:1 24173:1 14365:1
2853:1 4399:1
7169:1 23907:1 24631:1 1245:1 23505:1
12658:1 13255:1 27622:1 15435:1 18793:1 26845:1
13749:1 27135:1 16914:1 14587:1 13828:1
2215:1 18643:1 24499:1 1018:1 22907:1
27521:1 1538:1 10444:1 8740:1 5823:1
4504:1 15445:1 7412:1 22055:1 427:1 24499:1 9242:1 27521:1
947:1 19258:1 27554:1 24173:1 25547:1
22503:1 22847:1 9594:1 25544:1 24329:1 13828:1
13055:1 13196:1 12279:1 8675:1
15200:1 28468:1 5437:1 28643:1 22567:1 1985:1
8171:1 8302:1 1990:1 19211:1 5115:1
11703:1 12726:1 2197:1 2127:1
3361:1 18667:1 27733:1 10671:1 10444:1 13651:1
15297:1 12726:1 18135:1 27742:1 23638:1 22206:1
8151:1 19518:1 2683:1 3589:1 7438:1 15432:1 13843:1 12471:1 27086:1
1659:1 22258:1 14646:1
3092:1 12471:1 1738:1 21540:1 21220:1 22746:1 7348:1
2956:1 5256:1 18069:1 4577:1 13641:1
3186:1 9406:1 27622:1 563:1 9532:1 12471:1 1623:1 11969:1
8748:1 17975:1 12471:1 25301:1 18977:1 20545:1 10525:1
3589:1 27355:1 7972:1 2716:1 7956:1 9166:1
12894:1 8906:1 28522:1 19884:1
4415:1 21297:1 26098:1 5510:1
12458:1 4198:1 21714:1 7714:1
12831:1 8197:1 22630:1 19416:1 220:1 4792:1 7956:1 16081:1
16211:1 6302:1 4:1
3156:1 6876:1 855:1 28643:1 28324:1 16184:1 28093:1
28027:1 7608:1 5563:1 12702:1 15237:1 24465:1
23518:1 17498:1 8273:1 16487:1 24499:1 4754:1
3633:1 22931:1 9133:1 21002:1 10436:1 20628:1
9076:1 855:1 634:1 22754:1 15627:1 25547:1
2820:1 27869:1 16088:1 11215:1 10444:1 5510:1
5807:1 686:1 12209:1 13065:1 7375:1 24499:1 24982:1 18691:1
4387:1 10482:1 26189:1 10410:1 21277:1 28229:1
9049:1 24259:1 3744:1 22869:1 1771:1
20814:1 13276:1 1242:1 13329:1
14684:1 8412:1 2137:1 21708:1 12807:1 5485:1 9532:1 24499:1 9406:1
19171:1 10199:1 19700:1 13887:1 11832:1
3191:1 4666:1 21356:1 13186:1 13887:1
14006:1 5970:1 25733:1 13353:1
14216:1 28720:1
2579:1 2554:1 10266:1 25870:1
944:1 25600:1 24499:1 20237:1
27487:1 25964:1 2810:1 27520:1
17975:1 2443:1 23884:1 18977:1 8660:1 13414:1 10443:1
6087:1 8426:1 24593:1 13887:1 7466:1
3191:1 13926:1 21613:1 19884:1
21805:1 4521:1 1297:1 14558:1 14550:1 3713:1 119:1
24578:1 3007:1 21671:1 7591:1
21805:1 27360:1 6000:1 10277:1 24074:1 28643:1 11060:1
9725:1 8804:1 11060:1
22971:1 4726:1 7748:1 24806:1
26963:1 14761:1 20859:1 8877:1 25262:1 10444:1 26411:1 16015:1 25267:1
25188:1 15926:1 13752:1 23945:1 25945:1
7753:1 6876:1 25008:1 4501:1 1862:1
15236:1 5077:1 10444:1
11961:1 20772:1 2642:1 18722:1 16954:1 26189:1 22604:1 25524:1 21075:1
13655:1 7484:1 5941:1 26447:1
15868:1 5250:1 18667:1 18150:1
18114:1 27622:1 21942:1 16080:1 8549:1 16798:1
8165:1 10444:1 14214:1
20877:1 28643:1 18989:1 21751:1 25945:1 7120:1
5790:1 11596:1 13693:1 18977:1 21144:1 26220:1 10630:1
3589:1 7830:1
10444:1 24074:1 28356:1
1864:1 8197:1 21186:1
18322:1 10333:1 13037:1 6000:1 15551:1
18977:1 7716:1 563:1 19151:1 3678:1 8838:1 11733:1
14343:1 13527:1 12471:1 8708:1 24074:1 9187:1 25010:1 13694:1
22637:1 7022:1 5311:1 10214:1 1339:1 22221:1 18155:1
17547:1 12238:1 20707:1 23874:1
10011:1 19835:1 6823:1 18155:1
19095:1 5256:1 9453:1 27956:1 23360:1 18155:1
8141:1 1297:1 220:1
2130:1 6371:1 9140:1 2810:1 16080:1 16367:1 2979:1
6876:1 2137:1 12172:1 563:1 3935:1 9634:1 170:1
23901:1 21879:1 6046:1 4661:1
26461:1 27837:1 21613:1 28015:1 8302:1 103:1 18155:1
26208:1 9413:1 16923:1
10586:1 3806:1 2810:1 8794:1 4077:1
28625:1 8203:1 27965:1 14002:1 27210:1 26176:1
6741:1 4187:1 8557:1 22960:1 26193:1
20574:1 9371:1 19275:1 1002:1 13452:1 471:1
18114:1 18793:1 2810:1 14397:1 27622:1 11810:1
26937:1 8872:1 10810:1 27135:1 7288:1 2810:1 3241:1 8709:1 7196:1
13688:1 5654:1 14986:1 10569:1 18793:1 12445:1
9117:1 18472:1 18691:1
10494:1 20992:1 20529:1 17138:1 3186:1 10444:1 5928:1 12783:1 1070:1
14343:1 21740:1 1245:1 2443:1 27114:1
21805:1 18204:1 25319:1 5671:1 11799:1 1287:1
9850:1 11870:1 28632:1 27487:1 9717:1 27754:1 12138:1
8426:1 4649:1 18977:1
4661:1 13934:1 6968:1 8302:1
12831:1 1683:1 9461:1 23296:1
27521:1 15434:1 18813:1 2859:1 10901:1 1538:1 7348:1
11645:1 16005:1 251:1
26:1 24768:1 20632:1 1979:1 19884:1 10444:1 21012:1
28570:1 18977:1 12860:1 1131:1 19835:1 13993:1
26937:1 5449:1 9532:1 5115:1 16090:1
2555:1 16620:1 17442:1 2463:1
12995:1 22848:1 18500:1 18402:1 14303:1 13828:1 6793:1 10711:1 4807:1
26786:1 16374:1 9774:1 9406:1 8359:1 21039:1 13752:1 7348:1
9009:1 2128:1
18155:1 6326:1 13887:1 27521:1
1225:1 4253:1 16713:1 16374:1 13192:1 13191:1 27837:1 23778:1
21121:1 8804:1 11814:1 3334:1 21613:1
15309:1 19134:1 7786:1 13186:1 18977:1
22249:1 21879:1 1225:1 22994:1 24768:1
4423:1 1040:1 27135:1 1864:1 14728:1 10444:1
23608:1 7608:1 24471:1 9428:1 28414:1
12671:1 21653:1 17590:1 25724:1
16264:1 17834:1 12471:1 8708:1 12193:1 9187:1 13752:1 19109:1 7348:1
13843:1 5703:1 12471:1 23610:1 17666:1
2174:1 27114:1 19292:1 21303:1 26189:1 19606:1
25411:1 7830:1 18977:1 25918:1 18243:1 20237:1
8197:1 10278:1 24806:1 24499:1 4028:1 12036:1 17666:1
10444:1 2284:1 10086:1
22917:1 24499:1 1018:1 3816:1 6194:1
10586:1 2810:1 3642:1 5199:1 2847:1 9271:1
10777:1 21629:1 25010:1 9620:1 24213:1
26605:1 6693:1 19996:1 24272:1 11154:1
5532:1 25010:1 20006:1 11022:1 13651:1 8257:1 4111:1 14189:1
18114:1 12471:1 8582:1 19564:1 19192:1 11493:1 12658:1 18793:1 7664:1
9133:1 9406:1 1297:1 12398:1 24129:1
28027:1 14012:1 24944:1 12471:1 27521:1
5199:1 10444:1 27272:1 6501:1 28634:1
17310:1 25389:1
27306:1 18388:1
5256:1 26834:1
10937:1 1927:1 6292:1 26379:1
19641:1 27615:1 7714:1 26156:1 1131:1 21493:1 24499:1 626:1
22258:1 11969:1
12658:1 20736:1 11022:1 25010:1 22503:1
18047:1 10444:1 9513:1 601:1
3569:1 5115:1 13279:1 13452:1 11799:1
10147:1 4804:1 9285:1
20992:1 11022:1 11593:1 7466:1 18195:1 1018:1 2698:1 11637:1 12184:1
17738:1 27521:1 13651:1 12675:1 27520:1
11619:1 6823:1 9594:1 3569:1 25088:1 19001:1
16168:1 11188:1
21436:1 21075:1
1335:1 27624:1 27946:1
27468:1 6876:1 6747:1 12259:1
19468:1 9532:1 25729:1 13887:1 19798:1
19412:1 2785:1 20541:1 13300:1 24129:1 16755:1
21559:1 20992:1 8275:1 16478:1 8197:1 24499:1 10444:1 12783:1 18155:1
21879:1 3385:1 20736:1 2622:1 21274:1 5006:1 1070:1 10423:1
26963:1 16745:1 24291:1 5815:1 16155:1 9406:1
21772:1 25927:1 16681:1 3447:1
20992:1 4649:1 3266:1 4238:1 5457:1 21983:1 26363:1 220:1 20459:1
12522:1 1222:1 1461:1 18402:1 20815:1 27521:1 9391:1 25547:1
19835:1 23716:1 939:1 9133:1 14303:1 8530:1 14587:1
5867:1 6960:1 19823:1 13926:1 26381:1 21012:1
18083:1 14979:1 24768:1 19345:1 10444:1 25797:1 1006:1
28027:1 10586:1 6398:1 18793:1 24459:1 2810:1 26156:1 12947:1 9909:1
9661:1 10806:1 26328:1 21890:1 2541:1 24499:1 6573:1 24820:1
6876:1 1297:1 20353:1 24637:1 15926:1 13752:1 19732:1
19779:1 18428:1
563:1 8193:1 1297:1 27487:1
17517:1 1727:1 11158:1 4737:1 10954:1
27729:1 24499:1 14214:1 14910:1 5142:1 10444:1
12025:1 23332:1 12028:1 26361:1
16374:1 23445:1 25010:1 11022:1 2690:1
10055:1 13833:1 14165:1 634:1
1651:1 21222:1 7406:1 25877:1
21879:1 24186:1 12471:1 21075:1 10055:1 722:1 21613:1 24895:1 3917:1 13843:1
21805:1 21707:1 27772:1 4146:1 7197:1 20628:1 7876:1
21274:1 24677:1 6820:1 10852:1 5011:1 18308:1
1440:1 24768:1 20835:1 10444:1 24982:1 7956:1 19126:1
14145:1 16189:1 1297:1 13186:1 24358:1 25267:1 16553:1
547:1 14587:1 16598:1 27135:1
4942:1 10424:1 28040:1 220:1 17947:1
20814:1 23296:1 10685:1 4428:1
12471:1 13843:1 18848:1 12001:1 24791:1 16598:1 5835:1
16374:1 17140:1 2772:1 15063:1 14600:1 5077:1 16175:1 1938:1
4443:1 3991:1 10562:1 12860:1 19653:1 9636:1
20316:1 16452:1 5099:1 21436:1
13828:1 251:1 23062:1 10569:1 19566:1
14041:1 21075:1 17730:1 15452:1 5378:1 19126:1
4521:1 26588:1 14163:1 26156:1 15435:1 26845:1 13300:1
23040:1 11274:1 7830:1 16894:1
5449:1 8838:1 26134:1
20992:1 19134:1 20574:1 3991:1 1297:1 4932:1 11150:1
10586:1 12471:1 27906:1 1161:1 15575:1 1018:1
10443:1 24269:1 21555:1 7734:1 16764:1 6555:1
28027:1 2462:1 15802:1 22855:1 9166:1
26461:1 24453:1 8838:1
12831:1 5678:1 10997:1 587:1 2810:1 24791:1 9532:1 25010:1 25369:1
7343:1 9957:1 27622:1 14482:1 2810:1 18989:1 20979:1 26552:1
17975:1 23705:1 3589:1 18977:1 7716:1
24062:1 27521:1 10444:1 9532:1 17947:1
9850:1 2440:1 12807:1 7648:1 27759:1 22258:1 21700:1 14414:1
25547:1 5256:1 17196:1 24677:1 23884:1 21700:1 24791:1 18155:1
14500:1 563:1 25945:1 6267:1
26963:1 5856:1 100:1 5449:1 24499:1 23360:1
2387:1 3191:1 10156:1 23424:1 2810:1 18862:1 7608:1
5626:1 10086:1 1080:2 28516:1 22855:1 25558:1
22462:1 7022:1 23128:1 21983:1 3991:1
18114:1 26810:1 2810:1 18793:1 27975:1 13887:1 13828:1
28164:1 27004:1 939:1 23837:1
27347:1 18402:1 7484:1 21605:1 18924:1 25369:1 20687:1
23569:1 11074:1 28468:1 26098:1
8528:1 21906:1 9081:1
26363:1 18793:1 5087:1 13255:1 19884:1 11014:1 6641:1
12790:1 7484:1 4550:1 27759:1 10453:1 18155:1
8084:1 26165:1 14579:1 24499:1 19653:1 26098:1
5352:1 13090:1
2130:1 22233:1 24791:1 6000:1 28530:1 4591:1 563:1 21809:1
5602:1 5626:1 18870:1 7502:1 27947:1 947:1 10093:1 25267:1 18328:1
7639:1 20459:1 28053:1 2344:1
1427:1 21665:1 13196:1 13650:1
3884:1 17834:1 12471:1 14986:1 5458:1 13276:1 21186:1 8257:1 25598:1
1898:1 1297:1 3895:1 11868:1 439:1 5732:1 12068:1
14487:1 13623:1 13255:1 14979:1 13928:1 18243:1
11530:1 21613:1 6930:1 13065:1
27622:1 12557:1 21303:1 2810:1 16468:1 28676:1 1375:1 10758:1 4807:1
10974:1 10850:1 16747:1 23213:1 10443:1 4238:1
11218:1 23242:1
19323:1 14684:1 22971:1 22637:1
21877:1 17466:1 6699:1 24351:1 20982:1 9123:1
28027:1 17734:1 27937:1 8913:1 5214:1 6086:1 2197:1 3027:1 4829:1
27521:1 24791:1 16374:1 25010:1 22743:1 27618:1
19322:1 8582:1 20393:1 563:1 24499:1 16241:1 23778:1
25094:1 23590:1 26067:1 947:1 26261:1 12334:1 25267:1
11139:1 10444:1 9909:1 19422:1 10811:1
20092:1 26748:1 17713:1 17664:1 6007:1 891:1 25547:1
14515:1 22234:1 1296:1 28325:1
771:1 8733:1 4163:1 14931:1 8959:1 23013:1
27964:1 22040:1 20632:1 9302:1 1258:1 19884:1 3158:1 220:1
2956:1 22503:1 19924:1 7288:1 8302:1 24768:1 13887:1
12068:1 12471:1 25240:1 1403:1 5947:1
4661:1 12894:1 13887:1 4591:1 25010:1 25334:1
7275:1 1677:1 10798:1 18968:1 13276:1 21252:1
11470:1 6371:1 22054:1 11934:1 21954:1 26156:1 4628:1 8257:1 6302:1
14099:1 16224:1 4942:1 26098:1 24455:1
25189:1 16510:1 20482:1 25067:1 22475:1 220:1
24155:1 8624:1 13693:1 5449:1 5267:1 12009:1 25008:1
22808:1 3361:1 21525:1 21222:1 19211:1
19892:1 1389:1 10783:1 27502:1
18153:1 879:1 16851:1 20859:1 3569:1 5970:1 25733:1
7648:1 26845:1 7244:1 28188:1
16374:1 722:1 7107:1 14061:1
14303:1 9406:1 5176:1 11696:1 13262:1
18270:1 5516:1 4238:1 15717:1
10055:1 17324:1 13553:1 3186:1 26156:1 27762:1 24499:1 1118:1
5449:1 24499:1 24728:1 8264:1
9498:1 23702:1 12471:1 4238:1 13065:1 21613:1 14404:1 10828:1 26199:1 5532:1
8202:1 718:1 19527:1 8639:1 16667:1
19332:1 26963:1 22049:1 15611:1 16713:1 14500:1 563:1 10613:1 2555:1
4411:1 24231:1 16894:1 16713:1 10410:1 28707:1
22050:1 18366:1 8133:1 11800:1 3572:1
4807:1 1297:1 26461:1 8302:1 9639:1 19211:1 24180:1
4441:1 12852:1 3437:1 27316:1 10250:1 13875:1
26421:1 14906:1 27942:1 19884:1 19835:1 3720:1
22054:1 1313:1 2810:1 27622:1 28676:1 13186:1
22128:1 19256:1 2810:1 26156:1 9717:1 10742:1
5932:1 20095:1 25010:1 24658:1 8356:1 16374:1 7209:1 24499:1 26319:1 6920:1
20752:1 13371:1 1419:1 28522:1 3200:1
9755:1 25010:1 22468:1 634:1 11934:1 27975:1 13828:1
10586:1 4415:1 19872:1 855:1 2810:1 17138:1
563:1 24499:1 18793:1 18977:1 26618:1
12:1 21300:1 23719:1 19040:1 1868:1
11694:1 290:1 17196:1 13055:1 7466:1 7585:1 8798:1
17975:1 20992:1 18608:1 9949:1 18977:1 27308:1 13693:1
11596:1 9639:1 12807:1 28191:1 7411:1 24499:1
26786:1 10950:1 1053:1 8804:1
13655:1 5981:1 27809:1 19442:1 11104:1 12445:1 11520:1
12172:1 15611:1 14500:1 563:2 17619:1 24499:1 3994:1
2984:1 12471:1 7759:1 19762:1 21525:1 13843:1
7169:1 19412:1 11022:1 18840:1 1253:1
18793:1 2810:1 27622:1 28295:1 13659:1 27391:1
12017:1 1766:1 24289:1 27759:1 9123:1 6309:1
3582:1 16740:1 1297:1
7907:1 5256:1 12370:1 15671:1 4636:1 13651:1 10828:1
4415:1 18308:1 2399:1 4944:1 10444:1 22855:1 5835:1
24684:1 7466:1 13472:1 25010:1 16155:1 14081:1 16764:1
12831:1 27629:1 1717:1 5882:1
9957:1 24063:1 6641:1 25267:1
2182:1 23242:1 11095:1 855:1 10093:1 27622:1 17893:1 25547:1
4691:1 27700:1 6087:1 24945:1 12675:1 15575:1
17547:1 13141:1 10156:1 13556:1 8133:1 25334:1 14196:1
1968:1 12528:1 22604:1
6960:1 13926:1 4284:1 7309:1 13186:1
2956:1 6997:1 2854:1 19884:1 23418:1 8257:1 3191:1
4854:1 14347:1 24050:1 28505:1 19884:1 18394:1 9301:1
11985:1 9532:1 14546:1 16712:1 13887:1
26363:1 8024:1
4443:1 583:1 18608:1 1655:1 25010:1 20992:1 4399:1 875:1
18124:1 10560:1 10828:1 25575:1 27251:1
15920:1 5431:1 22119:1 12639:1 23552:1 26845:1
22288:1 14809:1 3349:1 10105:1
14305:1 18925:1 13300:1 16764:1
20794:1 9406:1 15105:1 9133:1 16666:1 24791:1 14149:1 16390:1
26580:1 11906:1 5732:1 8639:1 24335:1
15532:1 24155:1 8523:1 20691:1
23620:1 10444:1 3753:1
10470:1 7348:1 6823:1 8084:1 19277:1 27521:1
23296:1 15421:1
13739:1 2810:1 21186:1 21815:1 25267:1 14970:1
1801:1 26363:1 26748:1 10444:1 12205:1 14250:1 18385:1
12471:1 19896:1 23608:1 220:1 11619:1 21121:1 6186:1 22123:1 5455:1 26247:1
18608:1 541:1 1313:1 14761:1 13186:1 25267:1 3991:1
28625:1 19495:1 13046:1 6186:1 6326:1 25334:1 15762:1
10586:1 24459:1 3186:1 4848:1 2810:1 26518:1 16553:1 25267:1 13186:1
10586:1 5566:1 12471:1 1297:1 22895:1 21613:1 1451:1 12:1 13843:1
6371:1 769:1 18242:1 4693:1 18793:1 24962:1
18556:1 21076:1 12471:2 26273:1 5398:1 12932:1 24180:1
8972:1 11980:1 5524:1 3207:1 22595:1
2497:1 14450:1 8356:1 448:1 16013:1 27520:1
2868:1 20021:1 8838:1 25389:1
12471:1 7438:1 5278:1 15432:1 12870:1 27260:1 19172:1 27086:1 17410:1 23391:1 24459:1
27700:1 3766:1 19700:1 14303:1 7466:1 27420:1
8748:1 2329:1 14351:1 16713:1 8280:1 27665:1
27622:1 6302:1 10303:1 24629:1
21610:1 17138:1 3804:1 16061:1 25334:1 21651:1
24471:1 12437:1 10444:1 24217:1 11520:1
26763:1 3186:1 19884:1 4854:1 1287:1
5678:1 6410:1 2128:1 1655:1 28630:1 18000:1 3182:1
18793:1 15733:1 18977:1
3186:1 563:1 12471:1 23884:1 21613:1 14500:1 16713:1 24791:1 14149:1
28630:1 13037:1 26109:1 26207:1 7348:1
8302:1 12471:1 891:1 27615:1 21186:1 6635:1 24791:1 20010:1 25598:1
11939:1 6876:1 9639:1 21204:1 4810:1 5059:1
18191:1 13220:1 12471:1 3484:1 3186:1 17171:1 10444:1 16081:1
16189:1 17315:1 10130:1 563:1 5449:1 24247:1
8693:1 17138:1 2329:1 13728:1
25203:1 12522:1 28387:1 10277:1 3139:1 5838:1 10444:1
10532:1 2547:1 11104:1 2113:1 20836:1 12865:1
21112:1 11707:1 20787:1 9083:1 20768:1
8872:1 11414:1 17503:1 12702:1 6823:1 27046:1 7348:1
20752:1 9837:1 9133:1 8995:1
14343:1 17946:1 8648:1 8133:1 7830:1 3186:1 19835:1
16186:1 21613:1 19175:1 18366:1 11953:1
2848:1 4087:1 27135:1 439:1 24499:1 6309:1 17777:1 18155:1
18114:1 5703:1 9785:1 18170:1
25094:1 950:1 24499:2 13926:1 4028:1 4399:1
17662:1 11719:1 12471:1 12326:1 11104:1 23296:1 21290:1 13843:1
18237:1 8872:1 23118:1 13186:1 13887:1 20773:1 10600:1 23534:1 7830:1 14896:1 10562:1 24499:1
19147:1 23733:1 27902:1
12471:1 3186:1 1883:1 14358:1 23282:1 16013:1
17740:1 15933:1 27314:1 18270:1 23325:1
23529:1 12471:1 19440:1 23282:1 377:1 9301:1 6309:1 1938:1 7348:1
14303:1 10551:1 12471:1 22864:1 13887:1
8400:1 17730:1 3935:1 28643:1 21357:1 2626:1 9301:1
12894:1 3231:1 8582:1 10465:1 25010:1 5703:1 24492:1
28643:1 21683:1 1771:1 10914:1 27190:1
18140:1 10277:1 8639:1 13300:1
18847:1 26963:1 18858:1 18230:1 5559:1
28027:1 20982:1 2121:1 18977:1 16374:1 24499:1 25334:1 16923:1
20020:1 10802:1 1244:1 21204:1 1696:1 10453:1 24499:1 2541:1
3724:1 10444:1 947:1 18910:1 6573:1 28522:1
5678:1 12869:1 23837:1 5893:1 17324:1 28479:1
2853:1 24155:1 565:1 25547:1
4065:1 1461:1 19488:1 19275:1 23733:1 7956:1
20628:1 3542:1 12449:1 23778:1 18155:1
25790:1 1297:1 1685:1 6093:1 25589:1 21815:1 13186:1 16005:1
7087:1 5280:1 4822:1 7107:1 855:1
6135:1 4186:1 12471:1 3186:1 4552:1 1814:1 23418:1 5627:1 6247:1 24180:1
13970:1 3027:1 12852:1 6923:1 1040:1 297:1 8084:1
26508:1 18369:1 13614:1 13065:1
13393:1 8257:1 10828:1 5649:1 7697:1
15742:1 21002:1 11150:1 10950:1 13887:1 5176:1
17466:1 5024:1 9313:1 4636:1 28643:1 21170:1 11969:1
5912:1 9453:1 1566:1
26461:1 8302:1 4875:1 21613:1 18155:1
4636:1 16549:1 1461:1 21671:1 16764:1
4649:1 12658:1 6186:1 4932:1 21983:1 13186:1
18306:1 17196:1 28554:1 3437:1 12311:1 21812:1 19924:1
1177:1 1146:1 28771:1 12769:1 5300:1
26748:1 24615:1 8179:1 8444:1 3186:1 9406:1 5510:1
11596:1 1976:1 11619:1 8766:1 8069:1 13191:1 17834:1 687:1
20342:1 22493:1 12718:1 26381:1
10444:1 9513:1 12138:1 5017:1
12148:1 12514:1 21707:1 9453:1 2810:1 4636:1
4443:1 22495:1 25301:1 19251:1 16689:1 2810:1 2232:1 9406:1
9416:1 24615:1 9406:1 16690:1 24499:1 10669:1 17138:1 1522:1 26442:1
5199:1 15741:1 2810:1 16036:1 26535:1 18793:1 4932:1
11092:1 5686:1 9166:1
16713:1 24997:1 9900:1 20010:1 16945:1
8378:1 14351:1 14550:1 21390:1 855:1
25339:1 5024:1 3484:1 23837:1 9313:1 8804:1 13165:1
19412:1 20978:1 21002:1
2214:1 13312:1 20639:1 6249:1 13752:1 10444:1 15926:1 23339:1
563:1 12726:1 26379:1 27521:1
771:1 13046:1 26590:1 3615:1 14769:1 4273:1
14769:1 7861:1 1070:1
10444:1 20574:1 28359:1 12056:1 4163:1
13687:1 17111:1 18793:1 13887:1 5745:1
24524:1 9639:1
18585:1 6302:1
17086:1 23428:1 12471:1 1696:1 18155:1
8543:1 19518:1 3804:1 1766:1 8604:1
26156:1 563:1 5199:1 7348:1
2608:1 17138:1 19442:1 9799:1 7761:1 25575:1 11154:1
12471:1 16159:1 2197:1 3186:1 24631:1 13814:1 19045:1
8273:1 14482:1 25956:1 27622:1 24499:1 199:1 387:1
2776:1 13019:1 1996:1 14550:1 2784:1 24152:1 17234:1 25328:1
8748:1 17740:1 26963:1 3884:1 24499:1 21369:1 25007:1 14826:1
27622:1 2916:1 11273:1 7465:1 2810:1 947:2 7673:1 24499:1 6493:1 25267:1 25547:1
22049:1 14138:1 14318:1 12471:1 9620:1 3051:1 8412:1 9532:1 13032:1 9406:1 17777:1
21613:1 26461:1 8302:1 9639:1 12235:1 18155:1
307:1 2105:1 11619:1
13562:1 18759:1 24944:1 4369:1 19682:1
21226:1 26363:1 1040:1 6792:1 562:1 11345:1 6965:1
11529:1 20772:1 16582:1 27230:1 24408:1
14343:1 24838:1 2197:1 20574:1 2121:1 13065:1 24458:1 24261:1
14694:1 5838:1 10277:1 22119:1 25010:1 26447:1 18779:1
24791:1 24552:1 13322:1 8182:1 26624:1 10828:1 13149:1 11895:1
27487:1 15184:1 23360:1 27858:1
21879:1 26963:1 18084:1 12807:1 24768:1 24499:1 28522:1
25622:1 13207:1 21121:1 9532:1 1936:1 23674:1
563:1 2582:1 12172:1
13749:1 3569:1 24050:1 25156:1 19884:1
995:1 18977:1 7714:1 25301:1 7204:1 16038:1
5532:1 18667:1 23884:1 12843:1
12790:1 23603:1 1072:1 12453:1 18585:1 7998:1 13887:1
24499:1 18667:1 12068:1 6700:1 847:1
14183:1 138:1 16938:1 855:1
6371:1 14476:1 5115:1 12:1 14196:1
2443:1 9446:1 19134:1 13186:1 18977:1
465:1 16764:1 9301:1
18124:1 25010:1 10277:1 13694:1 26410:1
8125:1 9556:1 18017:1 27550:1 5237:1 4545:1
4443:1 4149:1 5626:1 722:1 21831:1 10443:1
10199:1 18793:1 13887:1 16060:1 24768:1
1100:1 27521:1 15131:1 3971:1 18106:1
23354:1 27742:1 11832:1 20237:1 2463:1
6706:1 12667:1 14946:1 12658:1 25334:1 21407:1 19348:1 11150:1 3569:1 24499:1 21097:1 6183:1
6253:1 5029:1 3804:1 13650:1 23635:1 18477:1
20912:1 17947:1 19723:1 25386:1 3051:1
26036:1 8449:1 12138:1 10479:1
1992:1 13046:1 19855:1 3186:1 21265:1 18717:1
18191:1 16528:1 25462:1 12783:1 3326:1
17975:1 2598:1 10444:1 12783:1 3186:1
4434:1 27550:1 13305:1 297:1 16713:1 10569:1
21226:1 25860:1 2508:1 16200:1 17138:1 3804:1 13887:1 25547:1
12790:1 17193:1 19884:1 25128:1 9900:1 16945:1
10569:1 11794:1 8449:1 20940:1 9069:1
4443:1 26963:1 14579:1 18793:1 22867:1 19211:1
28384:1 17834:1 220:1 11619:1 7402:1 6935:1
9850:1 9406:1 21803:1 23861:1 10967:1 5199:1
21479:1 24499:1 4028:1
9572:1 14214:1 297:1 26165:1 7348:1 19277:1 3991:1
1505:1 23619:1 24050:1 17410:1 137:1
10669:1 19752:1 7748:1 12:1
4636:1 27314:1 18103:1 18989:1
22503:1 16837:1 12471:1 16713:1 21831:1 9827:1 14546:1
8582:1 5867:1 8916:1 4297:1 13887:1 13828:1
17150:1 13012:1 13255:1 5324:1 6960:1 6136:1 2561:1
22128:1 26156:1 11170:1
27773:1 9406:1 5199:1 3252:1 3918:1
14028:1 27855:1 152:1 8197:1 6326:1 23495:1 2217:1 13910:1
15174:1 12471:1 1040:1 17138:1 16500:1 3186:1 14546:1
18191:1 19275:1 14335:1 5649:1 24289:1
2299:1 9406:1 4822:1 3086:1 9532:1 6920:1
490:1 11619:1 19771:1
28027:1 27982:1 5277:1 7608:1 2810:1
25965:1 20164:1 8817:1 1695:1
15174:1 7087:1 27193:1 1297:1 13414:1
5829:1 20238:1 18513:1 24465:1 7138:1 16338:1 220:1
4854:1 6198:1 24459:1 13329:1 6700:1 28395:1 9133:1 8628:1
9494:1 891:1 25547:1 28395:1 25375:1 14649:1 2810:1 6537:1 4601:1 22354:1 19211:1 24459:1
1461:1 26518:1 17261:1
27855:1 8133:1 21297:1 4745:1 12783:1 15465:1
3615:1 10600:1 22050:1 10444:1 22418:1
12471:1 3186:1 4216:1 848:1 24392:1 19653:1
6876:1 21222:1 2299:1 12184:1 6594:1 26328:1 9406:1 11022:1
14906:1 8708:1 3361:1 19884:1 24499:1 9522:1
13349:1 3361:1 14587:1 23948:1 17903:1 23301:1 3186:1
769:1 19518:1 10277:1 7411:1 11966:1 10303:1 1297:1 16475:1
26156:1 947:1 20051:1 23424:1
18649:1 11815:1 16945:1 20773:1
22591:1 25912:1 6395:1 2810:1 28643:1 25010:1 9406:1 10581:1 20370:1
13749:1 13693:1 18977:1 7716:1 1031:1 381:1
20904:1 25866:1 13207:1 6641:1 16681:1 14990:1
27314:1 16189:1 20393:1
38:1 24493:1 5457:1 13300:1
27700:1 17644:1 12573:1 891:1 13926:1 4754:1
17555:1 16799:1 5390:1 7432:1 13752:1 8838:1
13688:1 27700:1 19924:1 23326:1 8754:1 7394:1 10465:1 26136:1
17975:1 27135:1 4129:1 21784:1 372:1 3191:1 14826:1
1541:1 6496:1
9178:1 18608:1 25201:1 12658:1 9655:1 26518:1 25547:1
4443:1 25094:1 22847:1 11637:1 5115:1
4942:1 3186:1 8910:1 944:1 11725:1
12932:1 14165:1
15297:1 8930:1 22300:1 16080:1 27733:1 8972:1
17917:1 9957:1 17045:1 23608:1 25048:1 24499:1 22123:1
5115:1 20370:1 10444:1 28395:1 28314:1
4452:1 8302:1 26363:1 6764:1 11719:1
17960:1 26843:1 25010:1 27622:1
25478:1 11811:1 7466:1 24735:1 2810:1 28621:1
17809:1 1689:1 28417:1 27927:1
12148:1 24195:1 27550:1 18636:1 2121:1 28314:1 10569:1 8411:1 6309:1
25040:1 1605:1 23084:1 9313:1 25334:1 27521:1
178:1 1900:1 14946:1 5963:1 24499:1 2630:1 20484:1 7107:1
782:1 21805:1 5024:1 9313:1 19206:1 13054:1 10036:1 220:1
20239:1 20992:1 4649:1 28030:1 12783:1 18829:1
16884:1 12449:1 9413:1 23755:1 20814:1 16417:1
26363:1 24197:1 21436:1 12651:1 21159:1 23874:1 12068:1 10444:1
8171:1 4203:1 5660:1 15174:1 7411:1 1990:1
10277:1 18756:1 5437:1 24768:1 9133:1 7649:1 25524:1
16155:1 6398:1 26271:1 9949:1 24198:1
18806:1 18270:1 4238:1 7502:1 3961:1 27251:1
18114:1 9342:1 27230:1 25462:1 947:1 5198:1 26845:1 13887:1
6087:1 15880:1 27558:1 26518:1 6578:1 26845:1
11153:1 13752:1 21613:1 21879:1
12471:1 17730:1 8069:1 9187:1 4448:1 10444:1 26239:1 8227:1 18477:1
19892:1 17196:1
1051:1 5256:1 28417:1 18402:1 26210:1 24499:1 5322:1 25547:1
14550:1 21737:1 8257:1 21539:1 14270:1
14169:1 10444:1 23884:1
17183:1 11320:1 24471:1 27251:1 17953:1
3191:1 9755:1 16422:1 27622:1 26600:1 13186:1
10569:1 10444:1 27015:1 9821:1 16937:1
23637:1 25040:1 9594:1 9313:1 3007:1 10199:1 27521:1
220:1 11228:1 350:1 19946:1 2215:1 24270:1 14675:1 14558:1 28506:1
563:1 6936:1 23575:1 10652:1 19061:1
5127:1 5140:1 18667:1 15575:1 686:1
16374:1 4297:1 15800:1 9359:1
8954:1 27759:1 10444:1 12984:1 4399:1 10443:1
6135:1 9133:1 18008:1 2579:1 20010:1 17861:1
17466:1 20912:1 18088:1 811:1 12756:1 20084:1
14343:1 14444:1 4848:1 3186:1 14854:1 10444:1 1118:1 7348:1
26786:1 2443:1 12033:1 28419:1
5237:1 21507:1 23242:1 24863:1 356:1
18692:1 9957:1 12471:1 9055:1 18170:1 3186:1 3191:1 2810:1 6309:1 25964:1
14946:1 8193:1 26077:1 19260:1 25172:1 25101:1 17243:1
21610:1 5115:1 14568:1 8302:1 25647:1 21724:1
15883:1 10569:1 19823:1 16666:1 27550:1
14451:1 15205:1 19564:1 11868:1 16374:1 5175:1 13196:1 220:1
5602:1 12638:1 8302:1 4618:1 24173:1 5176:1
15129:1 3572:1 20387:1 10827:1
7648:1 14281:1 2301:1 3176:1 18848:1 5626:1 813:1 1657:1 19884:1
996:1 28391:1 27729:1 18083:1 27171:1 20725:1 23820:1 22855:1
9755:1 12:1 19913:1 21613:1 8639:1 17716:1
13887:1 24499:1 21570:1 21206:1 23358:1
9657:1 939:1 15151:1 25505:1 26518:1 20010:1 3720:1
769:1 565:1 330:1 8804:1 12471:1 7307:1
3811:1 25010:1 7432:1 27622:1 20235:1
2319:1 18977:1 2810:1 27992:1 9594:1 7673:1 7714:1 16727:1
28621:1 28002:1 22662:1 28643:1 24040:1 21802:1 25334:1
10614:1 8078:1 6552:1 8356:1 527:1
18114:1 20979:1 27622:1 18242:1 7348:1
12831:1 1920:1
26719:1 14306:1
21002:1 9847:1 5115:1 4492:1 3186:1 12471:1 3794:1 10443:1
18793:1 8776:1 27622:1 20979:1 24499:1 11968:1
5986:1 9939:1 11512:1 21737:1 15616:1 11704:1
19412:1 2810:1 4636:1 27314:1 16727:1 15583:1
12831:1 4032:1
5921:1 24499:1 24173:1 10199:1 27975:1 24129:1 13828:1
7532:1 1723:1
11619:1 4395:1 21121:1 7097:1 494:1 6202:1
27129:1 15239:1 15652:1
22808:1 15868:1 13019:1 10118:1 24564:1 27615:1 27975:1 12471:1 220:1
19539:1 18667:1 10758:1 14046:1 24492:1 13887:1
12831:1 3569:1 4897:1 7032:1 17425:1
8302:1 26963:1 21239:1 25232:1
334:1 13381:1 377:1 9301:1
23242:1 220:1 3572:1
1614:1 7304:1 16681:1 13086:1 12028:1 14854:1
22150:1 23291:1 24074:1 8227:1
16017:1 27463:1
6447:1 21879:1 27855:1 18366:1 18248:1
26354:1 13659:1 7412:1 4807:1 847:1 24499:1 20858:1 28522:1 12865:1
5024:1 9313:1 7725:1 13276:1 12001:1 13434:1
28281:1 17734:1 26531:1 9717:1 27327:1 28522:1 15465:1
18806:1 8055:1 2212:1 13065:1 21613:1 7759:1 19911:1 10810:1 15648:1
27468:1 20370:1 15802:1 21954:1 4618:1 5115:1
28758:1 12471:1 3864:1 2769:1 26914:1 1366:1
13887:1 9594:1 16945:1 7705:1 7466:1
24155:1 12718:1 17635:1 7830:1 13828:1
20275:1 15013:1 17045:1 563:1 25547:1 26508:1 8647:1
2130:1 16528:1 23407:1 25462:1 9287:1
14343:1 2956:1 13833:1 1031:1 15060:1
20940:1 23884:1 4423:1 527:1 9911:1 7348:1 220:1 27521:1
17171:1 21144:1 3190:1 18977:1 17138:1
9009:1 17018:1 16799:1 24074:1 1632:1
28384:1 8648:1 9006:1 9968:1 7885:1 25016:1
6808:1 21613:1 26904:1 25301:1
22028:1 5745:1 9406:1 12185:1 21896:1 25010:1 12681:1
2555:1 17056:1 13556:1 7090:1 20084:1 10444:1 4238:1
6192:1 27200:1 7412:1 18840:1
23160:1 26106:1 4875:1 7335:1
10486:1 10852:1 3569:1 12783:1
5139:1 4213:1 4484:1 26529:1
14158:1 22885:1 1297:1 24459:1 23505:1
10815:1 20602:1 26793:1 14896:1
7275:1 21940:1 2810:1 13607:1 7288:1 1131:1 26337:1 8257:1
22848:1 28638:1 18402:1 9639:1 24565:1 2554:1 1461:1 4932:1 25524:1
13082:1 5378:1 8899:1
6792:1 1040:1 14451:1 19169:1 19877:1 5384:1
14343:1 10950:1 2015:1 17317:1 5954:1
2316:1 6699:1 11221:1 20351:1 28186:1 997:1 22447:1 12471:1 2054:1 28693:1 5510:1
25718:1 26963:1 14906:1 25010:1 13300:1 5602:1
5138:1 18306:1 10199:1 1297:1 21539:1
21547:1 15870:1 21920:1
24453:1 12471:1 2765:1 21613:1 26461:1 8302:1 24180:1 4501:1 21548:1
28027:1 5277:1 7608:1
12658:1 25010:1 11814:1 15604:1 26381:1
563:1 5882:1
19855:1 5681:1 14220:1 26698:1 22354:1 3804:1
15174:1 11264:1 1297:1
28281:1 439:1 28771:1 4395:1 14303:1 2554:1
19211:1 1147:1 24018:1 9634:1 12138:1 18505:1
28417:1 23424:1 21303:1
25194:1 9058:1 7471:1 8510:1 7608:1 18366:1 12783:1
10215:1 27622:1 25791:1 13186:1 16005:1
13294:1 15338:1 3716:1 13752:1 12322:1 1727:1 10410:1 4742:1
28676:1 12745:1 19872:1 13276:1 20518:1 19775:1 14597:1 4875:1 10828:1 10406:1
20059:1 22233:1 5882:1 563:1 19122:1 95:1 15822:1
9228:1 13365:1 20370:1 20114:1 3493:1 23758:1 12523:1 2810:2 5049:1
1100:1 13749:1 22973:1 9513:1 18977:1 2810:1 27184:1
16307:1 20377:1 25010:1 21076:1
20992:1 6930:1 16500:1 8604:1 25010:1 27806:1 22847:1 12681:1
7412:1 11022:1
14068:1 6075:1 12471:2 22987:1 1225:1 27975:1
21274:1 22585:1 18977:1 26156:1 219:1 14081:1
947:1 21760:1 1070:1 12783:1 18155:1
13752:1 16598:1 2810:1 13828:1
15997:1 17664:1 23262:1
18502:1 16887:1 3589:1 5835:1
23837:1 17947:1 16484:1 3681:1 13342:1 220:1 13196:1
12471:1 14363:1 3186:1 17267:1 26552:1 11447:1
7702:1 24399:1 1696:1 8302:1 21693:1 13926:1 968:1
8197:1 20992:1 12471:1 19361:1 10199:1 3240:1 24506:1 14990:1 12783:1 14165:1
947:1 20992:1 7368:1 7648:1
16239:1 26610:1 1053:1 16481:1 4444:1
6274:1 19518:1 1040:1 27135:1 7901:1 10444:1 11590:1
28395:1 19241:1 24459:1 891:1 4601:1 20811:1
25756:1 4854:1 2579:1 10652:1 25267:1
27129:1 10786:1 16884:1 6326:1 19212:1
21151:1 11095:1 21954:1 24572:1 17947:1 1018:1
2956:1 28395:1 9523:1 24459:1 24836:1 27622:1 24499:1 28722:1 17710:1
14444:1 28229:1 24591:1 8930:1 12286:1 18793:1 9301:1
22905:1 21613:1 12852:1 10685:1 1461:1
563:1 18585:1 855:1 1906:1 7348:1
26156:1 26098:1 26388:1 5510:1
20992:1 5626:1 23381:1 12973:1 12658:1 12471:1 10443:1 25334:1 27272:1
2956:1 16080:1 7525:1 5703:1 16860:1
5139:1 11264:1 26029:1 9490:1 20237:1 13300:1
3051:1 1072:1 18170:1 19603:1 11980:1 10444:1 7714:1 9166:1
3266:1 19884:1 16374:1 11171:1 24040:1 20237:1 3569:1 220:1 21390:1
3203:1 12585:1 21322:1
14303:1 22552:1 13887:1
17946:1 4238:1 13553:1 26165:1 12860:1 16747:1 13828:1
19924:1 24479:1 21798:1 24566:1 24929:1 23917:1 5176:1
4415:1 5115:1 18756:1 6713:1 2810:1 28643:1 24499:1 21072:1
18645:1 19518:1 13926:1 9140:1 25028:1
2853:1 26199:1 14525:1 4280:1 13065:1
21877:1 27521:1 13728:1 9527:1 25547:1 9471:1
27759:1 12:1 7009:1 21525:1 16553:1
5167:1 15742:1 25462:1 10636:1 21002:1 23118:1 16582:1 21075:1
21831:1 24351:1 16436:1 6846:1 3186:1 21323:1 24631:1
25547:1 4415:1 12807:1 13329:1 4847:1 24499:1 27325:1 26653:1
20912:1 12471:1 14946:1 27896:1 25336:1 10444:1 14089:1 15721:1
26932:1 13655:1 25837:1 16200:1 13887:1
5115:1 28017:1 20370:1 28314:1 10093:1 17413:1 25547:1
17057:1 3007:1 27589:1 26531:1
22503:1 9406:1 22637:1 14931:1 27314:1 220:1 3020:1
12831:1 21076:1 2197:1 19306:1 18949:1 24499:1 10444:1 220:1
4800:1 20804:1 12471:1 6000:1 12983:1 19564:1 13329:1 24499:1 13843:1
4186:1 24074:1 27742:1 563:1 27733:1 25010:1
23242:1 21144:1 23758:1 106:1 1038:1 25010:1
23592:1 3431:1 18608:1 26845:1 95:1
23040:1 22374:1 17193:1 15697:1 14500:1 563:1 23705:1
1080:1 2463:1 10550:1 23360:1 14365:1
9498:1 12471:1 3546:1 11259:1 15177:1 3186:1 1505:1 21121:1 220:1
17710:1 1538:1 11022:1 19884:1
7830:1 24768:1 12860:1 1316:1 23705:1 25601:1 13887:1
6093:1 10444:1 335:1 18686:1 18840:1
6371:1 9513:1 19913:1 6302:1 25601:1 1316:1 24173:1
13922:1 4:1 8356:1 24324:1 24791:1 28229:1 9301:1
26834:1 7608:1 20010:1 16686:1 838:1
23296:1 28127:1 21525:1 21237:1
26156:1 8388:1 14689:1 855:1 25615:1 4932:1
2956:1 28720:1 25312:1 4395:1 24791:1 18124:1
55:1 7971:1 4944:1 5738:1 17491:1
14515:1 3713:1 7608:1 24349:1
16884:1 11638:1 26363:1 27837:1 27290:1 21613:1 16374:1 8302:1 18155:1
16080:1 21002:1 16013:1 26098:1 22885:1
10521:1 17710:1 1297:1 2642:1
27650:1 24838:1 12471:2 2750:1 24506:1 17138:2 563:1 1320:1 494:1 17317:1
5256:1 7348:1 26953:1 27425:1 10777:1
8394:1 1766:1 6823:1 25010:1 14107:1 18155:1
6302:1 27564:1 19935:1 24349:1
14860:1 10532:1 1960:1 25572:1 18589:1 13240:1
21274:1 20992:1 12471:1 9313:1 9135:1 4636:1 19468:1 20912:1 12783:1 995:1
950:1 9620:1 15431:1 251:1 12471:1 27975:1 25890:1 220:1 13828:1
11513:1 26963:1 82:1 23291:1 19924:1
23884:1 14450:1 2541:1 9532:1 8356:1 10444:1 7625:1 9301:1
16859:1 16267:1 17138:1
15926:1 13752:1 25299:1
24615:1 13529:1 21540:1 16133:1 24499:1 15232:1
23901:1 27650:1 21613:1
13090:1 12471:1 11619:1 25010:1
18172:1 2121:1 14986:1 21186:1 20410:1 9391:1
4415:1 11262:1 1040:1 1064:1 27135:1
20877:1 10786:1 18667:1 634:1 7533:1 1723:1
18876:1 12389:1 18665:1 7636:1 11188:1
9110:1 28560:1 8227:1 4501:1 24180:1
7330:1 10424:1 847:1 7169:1 3747:1 26518:1
19412:1 24499:1 2555:1 20632:1 1717:1 14165:1 25334:1
25462:1 15671:1 472:1 27521:1 23028:1 19133:1 25547:1
6818:1 11847:1 1717:1 12539:1 26963:1
105:1 12068:1 20212:1 16221:1 491:1 10926:1 7348:1
26834:1 12370:1 28597:1 24289:1 4302:1 24499:1 13300:1
2259:1 9513:1 2642:1 14214:1 20727:1
12237:1 14906:1 3441:1 19884:1 13550:1 10766:1 13494:1 2011:1
23553:1 25938:1
20992:1 27855:1 5087:1 18977:1 24943:1 12783:1
17881:1 1225:1 2065:1 25306:1 21323:1 15836:1
12852:1 25591:1 21982:1 27379:1 17113:1
21805:1 24499:1 163:1 16290:1 21050:1
21226:1 23884:1 16200:1 8838:1 14119:1 12843:1
28281:1 26963:1 5024:1 9313:1 19144:1 16528:1
2853:1 20827:1 12138:1
20874:1 2197:1 9271:1 980:1
14178:1 13165:1 8646:1 27550:1 10569:1 601:1
12894:1 4332:1 6947:1 5724:1 16374:1 27622:1 681:1 25010:1 25334:1 5176:1
2868:1 2853:1 20628:1 18155:1
15297:1 18430:1 7672:1 11288:1 19061:1 6183:1 15836:1
24838:1 10671:1 12471:1 22987:1 9187:1 22123:1 9166:1
16713:1 4097:1 9636:1 1131:1
12365:1 718:1 22701:1 3051:1 24499:1 23632:1
4214:1 7090:1 11060:1
20185:1 8804:1 13165:1 2399:1
15174:1 2975:1 12596:1 9378:1
17210:1 7648:1 21482:1
7876:1 2399:1 16200:1 12399:1 19653:1 1771:1 5378:1
18773:1 14645:1 1723:1 4311:1
7348:1 20488:1 2810:1 9532:1 11934:1 3365:1 13828:1
28022:1 27468:1 24155:1 15966:1 4550:1 6876:1 27031:1 24499:1 28479:1
14214:1 14649:1 24623:1 26845:1 4143:1 25547:1
20958:1 21002:1 18704:1 7335:1
8171:1 6371:1 9391:1 2810:1 26165:1 10453:1 6302:1 1990:1 8679:1
16776:1 18235:1 20370:1 7728:1 19884:1
953:1 10277:1 18948:1 24289:1 10444:1 4643:1 220:1 12896:1
24572:1 14380:1 11329:1 8302:1 15260:1 13300:1
27013:1 4977:1 7120:1
20518:1 27461:1 23638:1 11587:1 9301:1
18114:1 14347:1 18328:1 26156:1 27672:1 4399:1
3027:1 21613:1 751:1 22151:1 21407:1
13141:1 24802:1 17351:1 2649:1 21340:1
18090:1 17144:1 11245:1
4550:1 5115:1 8582:1 27521:1 10443:1 25547:1
9532:1 10997:1 12545:1 10443:1 7625:1
8171:1 15417:1 105:1 12539:1 27207:1 16713:1 24621:1 1990:1 2561:1
17740:1 1776:1 9058:1 9850:1
859:1 5449:1 11341:1 7728:1 6327:1
4149:1 26867:1 13120:1 2642:1 7748:1
17193:1 9705:1 27622:1 15072:1 24499:1 13570:1
8275:1 13752:1 20459:1 1727:1 23251:1 17171:1
5140:1 15920:1 27383:1 28643:1 24591:1 23016:1 9166:1
24806:1 2579:1 9146:1
11509:1 2810:1 563:1 23069:1 15697:1 6326:1 13584:1
12237:1 6876:1 8499:1 13734:1 22885:1
26786:1 19180:1 16189:1 8804:1 28431:1
14930:1 10277:1 2543:1 6823:1 18452:1 8257:1 8523:1
6876:1 25857:1 7432:1 16431:1 11106:1 1988:1 28417:1 23705:1
28229:1 10783:1 15129:1 1297:1 20387:1 6326:1 18155:1
20877:1 12831:1 18828:1 414:1 14099:1 23768:1 17876:1 9123:1 19926:1
12831:1 26562:1 2642:1 14064:1 23939:1 4643:1 4446:1
17150:1 7767:1 24488:1 12954:1
19278:1 9139:1 9892:1 12756:1 4643:1 27272:1
17740:1 6876:1 14587:1 19835:1 12842:1 23877:1 25334:1
26963:1 26363:1 565:1 1080:1 25010:1 23043:1
1297:1 13361:1 27785:1 27487:1 25010:1 21525:1 26447:1 5322:1
7481:1 3151:1 562:1
24839:1 978:1 12978:1 23282:1
26763:1 23769:1 10444:1 939:1 16879:1
12471:1 16872:1 21186:1 21422:1 16598:1 25547:1
6087:1 27086:1 15880:1 15432:1
563:1 21076:1 21809:1 15073:1
10444:1 2011:1 25303:1 15120:1
5013:1 10532:1 26967:1 28326:1 5103:1 25547:1
16264:1 24499:1 7348:1
6876:1 4636:1 563:1 28324:1 8257:1 33:1
17881:1 25123:1 14214:1 26748:1 19889:1 24499:1 16681:1
3191:1 13926:1 21983:1 19884:1
2956:1 13833:1 21185:1 21653:1 14295:1 2698:1 25334:1
21427:1 2237:1 2127:1 28314:1
28582:1 26297:1 1297:1 6253:1 12658:1 17666:1 13042:1 4143:1 25547:1
14645:1 16200:1 6652:1 10828:1 2421:1
27622:1 24050:1 3963:1 25431:1 9333:1
24381:1 3582:1 23834:1 8257:1 9027:1 24173:1 18741:1
784:1 14115:1 20377:1 8356:1
17740:1 5449:1 27015:1 21109:1
11633:1 26963:1 6923:1 5140:1 563:1 14990:1
23296:1 12068:1 11872:1
16815:1 12471:1 23101:1 11868:1 20874:1 12331:1 5152:1 28624:1 19001:1
13128:1 11792:1 12471:1 3186:1 6309:1 26508:1 23360:1
6494:1 20728:1 26518:1 10256:1 17138:1
19539:1 6823:1 19277:1 5242:1
12462:1 24095:1 7714:1 10875:1 2561:1 8675:1
2130:1 17498:1 16481:1 21455:1
27895:1 10444:1 3484:1 16013:1
15742:1 19671:1 15067:1 19823:1 16553:1 25267:1 7348:1
19884:1 19345:1 16938:1 12658:1 3186:1 19707:1 2579:1 24037:1
14930:1 19057:1
12831:1 9461:1 21965:1 12302:1 23296:1
12831:1 3589:1 18460:1 9238:1 2209:1 220:1
19217:1 12852:1 26536:1 21178:1 2593:1 24499:1 7348:1
26963:1 10550:1 9532:1 4435:1 16367:1 13887:1
6274:1 23861:1 2810:1 27622:1 12658:1 13728:1 13799:1
5602:1 19518:1 6823:1 15177:1 4875:1 19277:1 26381:1 28188:1
5148:1 24791:1 11752:1 14165:1 1283:1
23414:1 16884:1 19924:1 18360:1 20814:1 25547:1
25790:1 17191:1 12471:1 2251:1 4033:1 17947:1 7167:1 17317:1
27622:1 16598:1 23431:1 12658:1 25128:1 3492:1 26508:1
17196:1 12471:1 7830:1 7466:1 563:1 11637:1 6828:1 20768:1
28027:1 4097:1 16863:1 25010:1 27975:1 9241:1
7439:1 20645:1 7502:1 21613:1 27588:1 2257:1 13843:2 13655:1 22973:1 18569:1 13632:1 24499:1 12471:2
4077:1 15437:1 1616:1 7396:1 18124:1 22847:1 20010:1
28395:1 28161:1 24863:1 28730:1 14525:1 24631:1 4399:1 24459:1
3206:1 17946:1 27521:1 23884:1 15031:1
4253:1 20859:1 23166:1 8838:1 25059:1 10951:1
10950:1 20992:1 3991:1 20959:1 27975:1 9301:1
1297:1 3268:1 6307:1 10444:1 27015:1 4635:1
8426:1 16713:1 16747:1 6989:1 4238:1
22890:1 1793:1 8197:1 170:1 16155:1 11316:1 9166:1
307:1 28217:1 17848:1 17138:1 23619:1 28334:1
1297:1 4939:1 27135:1 1124:1 9765:1 11092:1 24499:1 20207:1 24977:1
25615:1 10444:1 27975:1 5835:1
12651:1 7138:1 14436:1 15616:1 23146:1 220:1
13167:1 9087:1 28494:1 10490:1 17310:1 10444:1 17825:1 27531:1
6854:1 23760:1 20393:1
17946:1 26299:1 13452:1 847:1 3186:1 7972:1 24337:1
24173:1 24768:1 1131:1 19252:1 27975:1 13887:1
5140:1 17946:1 12624:1 23016:1 9166:1
3191:1 11596:1 19974:1 23527:1 18366:1 20461:1
22637:1 12932:1 19198:1 28522:1
9009:1 25048:1 25575:1 1632:1 23491:1 6280:1 24499:1 13887:1
18439:1 19314:1 410:1 8302:1 4387:1 28229:1
1683:1 28229:1 24791:1 5612:1 12:1 26449:1 10444:1 13300:1 27521:1
4633:1 17543:1 1313:1 17138:1
7170:1 9004:1 7636:1 18685:1 20814:1 18966:1
28027:1 12851:1 4149:1 563:1 26064:1
11386:1 686:1 17215:1 3569:1 13639:1 5516:1 2316:1 17884:1
18685:1 1147:1 20992:1 17236:1
9799:1 10828:1 25334:1 24230:1
8059:1 16741:1 13170:1 7109:1 9756:1 14325:1
16374:1 13029:1 26613:1 15217:1
12982:1 11234:1 21895:1 7432:1 13752:1 11154:1 220:1
2956:1 24050:1 7830:1 24572:1 8933:1 20010:1
25128:1 10777:1 2533:1 20752:1 21613:1
12852:1 1297:1 7411:1 9892:1 16713:1 4392:1 1070:1
3894:1 7412:1 8133:1 9461:1 25010:1 4427:1 220:1 11022:1
23284:1 10444:1 19450:1 7348:1
2956:1 20128:1 3589:1 7830:1 18135:1 19345:1
12932:1 3791:1 6344:1
27013:1 2121:1 20535:1 9461:1 7249:1 21031:1 26518:1 3569:1 16938:1
5449:1 11870:1 12138:1 9850:1
21539:1 19440:1 855:1 8794:1
26907:1 15425:1 21144:1 14983:1 847:1
8197:1 995:1 26618:1 14169:1 23572:1 12783:1 23161:1
10105:1 25010:1 22123:1 17234:1 24311:1
14295:1 13243:1
18239:1 25912:1 9406:1 18155:1
7309:1 22011:1 24572:1 26333:1 6066:1 18170:1
13141:1 16700:1 23305:1 16879:1
21879:1 10175:1 12807:1 24768:1 5449:1 25083:1 220:1 6802:1
13749:1 6473:1 297:1 2015:1 8257:1 21983:1 12138:1
24615:1 12471:1 251:1 3186:1 25010:1 16435:1 9406:1 14373:1
4376:1 439:1 16472:1 6305:1 823:1
6876:1 16367:1 3328:1 18242:1 23161:1
25718:1 28274:1 2443:1 22567:1 7830:1
19892:1 17196:1
28136:1 1287:1 17861:1
290:1 19134:1 16713:1 14303:1 15697:1 24499:1 2463:1
5199:1 12370:1
4208:1 4275:1
21442:1 9313:1 5024:1 21890:1 13037:1 3484:1
26544:1 12471:1 22050:1 8681:1 8210:1 26079:1 28676:1 220:1 13843:1
15742:1 3191:1 939:1 23837:1 13926:1 6839:1
18191:1 11696:1 19429:1 18243:1 6907:1 13887:1
4942:1 3587:1 3572:1 26305:1
21459:1 22050:1 8449:1
5815:1 13887:1 28259:1 11704:1 1766:1
8748:1 26963:1 24529:1 27759:1 563:1 28533:1
28452:1 13367:1 18977:1 2554:1 11777:1 1070:1 18155:1
28229:1 18667:1 2399:1 10669:1 12842:1 64:1 18155:1
10674:1 28730:1 27798:1 24173:1 6823:1
1297:1 17270:1 4395:1 23746:1 23209:1 8475:1
13388:1 2541:1 10443:1 9777:1 19207:1
3177:1 17411:1 7608:1 915:1
10817:1 2261:1 8048:1 5835:1 8465:1
1297:1 16938:1 381:1 2810:1 12658:1 20728:1 18448:1 26607:1 3565:1 367:1
22354:1 3804:1
8796:1 23296:1 21815:1 12404:1 15217:1
8197:1 18069:1 12471:1 11582:1 3186:1 16221:1 25647:1 10444:1
18500:1 6000:1 1297:1 17041:1 18135:1 15836:1 25010:1 10105:1 27521:1
28417:1 21879:1 21809:1 20976:1
519:1 4800:1 21433:1 5278:1 26156:1 27746:1 24631:1 95:1
28281:1 16713:1 20574:1 13718:1 4216:1
18561:1 14064:1 23758:1 24066:1 28417:1 18392:1
8:1 3804:1 28161:1 25334:1
1199:1 3946:1 8273:1 26933:1 4754:1
24499:1 13561:1 26891:1 10444:1 27733:1 8257:1 1611:1
12831:1 9498:1 13728:1 1824:1 25891:1 1758:1
20792:1 3186:1 23418:1 12471:1 21297:1
914:1 16310:1 2502:1
6876:1 13035:1 7728:1 25334:1
24838:1 3361:1 9271:1 11619:1 4932:1 220:1 2121:1
27622:1 9301:1
14482:1 2810:1 16374:1 7786:1 28676:1 9777:1
14587:1 23536:1 23901:1 28643:1 1723:1 12471:1 21252:1
21805:1 5087:1 22931:1 847:1 22885:1 28324:1 24499:1 4693:1
9850:1 649:1 25235:1 17664:1 7714:1 11896:1 10444:1 14715:1
24269:1 718:1 8257:1 10444:1
14550:1 13421:1 860:1 16374:1 6302:1 2690:1 8675:1
22624:1 7439:1 19994:1 6876:1 13926:1 3191:1 25547:1 24453:1 27255:1 2765:1 4015:1 13623:1
14931:1 22503:1 21681:1 15926:1 24499:1 24962:1
26518:1 8767:1 1297:1 7546:1
28027:1 3834:1 6398:1 9513:1 7728:1 6876:1 9772:1 10453:1 24499:1 6309:1
2130:1 19332:1 9549:1 11144:1 16713:1 10047:1 9301:1
14645:1 8215:1 4501:1 14451:1 17138:1 9699:1 4754:1 24180:1
17975:1 5626:1 7830:1 19700:1 20934:1 20632:1
2555:1 9829:1 2810:1 7275:1 847:1 8257:1 7480:1
17740:1 11094:1 563:1 5524:1 25547:1
17514:1 27793:1 20006:1 23608:1 14500:1 563:1 12024:1
10586:1 14649:1 14076:1 19025:1 15648:1 7348:1
9188:1 8257:1 24050:1 22931:1
11697:1 23978:1 16882:1 23214:1 11345:1
8084:1 3852:1 8257:1 10324:1
13651:1 4111:1 4501:1
7496:1 21885:1 19564:1 63:1 3330:1 7939:1
15989:1 11620:1 16985:1 4636:1 22848:1 9527:1 16879:1 14502:1
1701:1 395:1 25431:1 3186:1 6823:1 10444:1
26932:1 14931:1 16294:1 1946:1
19884:1 11997:1
1100:1 11694:1 8215:1 18977:1 14451:1 1580:1
25790:1 24759:1 1287:1 28040:1 4635:1
20370:1 26508:1 28314:1 16080:1 10444:1 16598:1 25524:1
19183:1 25290:1 2810:1 13065:1 27759:1 21613:1 9639:1 13240:1 27837:1
12831:1 18820:1 8582:1 13171:1 18114:1 28643:1 15622:1
4854:1 27702:1 12471:1 13312:1 9187:1 20728:1 2828:1 10826:1
12831:1 10997:1 14689:1 25368:1 10797:1 23598:1 21252:1 1019:1
26156:1 299:1 5199:1
19412:1 26199:1 1297:1 16374:1 23602:1 6186:1 2214:1 6302:1
8942:1 28417:1 15926:1 13752:1 10444:1 25559:1
25615:1 20861:1 24084:1 8930:1 16484:1
13926:1 13276:1 2054:1 19360:1 9133:1
5178:1 2582:1 24499:1 21436:1 4448:1
18268:2 23896:1 26866:1 220:1 13448:1
23608:1 131:1 17947:1 1696:1 8219:1 14016:1
26165:1 6371:1 10453:1 1242:1 14214:1
7411:1 18177:1 19225:1 3859:1
20912:1 7599:1 12471:1 24572:1 6400:1 10415:1 8804:1 12783:1
7264:1 22637:1 20214:1 9406:1 25334:1
18618:1 15177:1 21075:1 2296:1
27476:1 10614:1
21274:1 14165:1 18977:1 19700:1
8202:1 27103:1 27501:1 8116:1 9721:1
24499:1 25543:1 2121:1 28487:1
19217:1 15413:1 8215:1 20399:1
14869:1 17635:1 13887:1 13828:1
14303:1 6269:1 12471:1 25397:1 13887:1
3191:1 19884:1
15128:1 18977:1 16699:1 563:1 20889:1 7348:1
7885:1 18155:1 20768:1
19519:1 2642:1 17445:1 25010:1 8804:1 12783:1 18155:1
12658:1 5626:1 24791:1 26845:1 13739:1
25094:1 12471:1 9411:1 3186:1 14579:1 25010:1 13828:1
25964:1 12471:1 7432:1 13843:1 2554:1 13752:1 27054:1 6920:1
10055:1 12853:1 16938:1 3227:1 12658:1 7394:1 18793:1 10517:1
12471:1 22642:1 15104:1 8609:1 26952:1 10444:1 20717:1
5626:1 22256:1 2810:1 8754:1 24173:1 17099:1
563:1 8449:1 3851:1 12172:1
8197:1 17834:1 13243:1 3589:1 15524:1 1814:1 26072:1 12865:1
153:1 23176:1 8803:1 7309:1 25890:1
20518:1 12266:1 10444:1 1072:1
1298:1 3991:1 11619:1 7138:1 25010:1 21322:1 220:1 9054:1
17917:1 22284:1 19476:1 13300:1 10246:1
17056:1 10444:1 14214:1 8292:1 19130:1
16374:1 28122:1
2197:1 12193:1 18743:1 16864:1 2029:1 8741:1
26461:1 8302:1 9315:1 14143:1 9133:1
16148:1 27622:1 6302:1 27521:1 13421:1 2463:1
24232:1 12730:1 16220:1 23391:1 7438:1 27260:1 2366:1 12471:1 220:1 24459:1
8302:1 19539:1 25463:1 6641:1 5703:1
17946:1 6776:1 27028:1 847:1 3280:1 10444:1
12831:1 2197:1 23287:1
9076:1 21613:1 26698:1 3720:1
4415:1 12471:1 10277:1 4249:1 28643:1 24084:1 20632:1 10444:1 13843:1
12831:1 1920:1
4415:1 21222:1 22031:1 21072:1 24499:1 7121:1 1904:1
11698:1 19884:1 21144:1 16713:1 21314:1 2579:1 26845:1 13887:1 6302:1
28276:1 20239:1 5964:1 13887:1 12783:1 1478:1 718:1 27230:1
20877:1 22746:1 27657:1 25010:1 27521:1
10444:1 11221:1 16681:1 1040:1
10950:1 23778:1 24108:1
27759:1 4636:1 17431:1 17230:1 25600:1
15241:1 18793:1 16553:1 25267:1 2810:1
10156:1 24050:1 2810:1 1483:1 27622:1 5292:1 24499:1
15247:1 10444:1 24459:1 19292:1
3361:1 25301:1 4875:1 1219:1 12865:1 21525:1 21222:1 2113:1
17196:1 11452:1 20992:1 22348:1 4974:1 15049:1 28417:1 13349:1 22774:1
20142:1 9133:1 6815:1 9594:1 25010:1 8838:1 13887:1 19001:1
6274:1 10810:1 12471:1 28705:1 15067:1 3791:1 9324:1
21151:1 5964:1 16109:1 13171:1 2810:1 25463:1 26156:1 16367:1 24499:1 13887:1
15347:1 25845:1 7786:1 24823:1 18977:1 623:1 18793:1
3191:1 26984:1 26328:1 10828:1 12899:1 8724:1
28704:1 12471:1 10277:1 14214:1 4415:1 7842:1 13843:1
5790:1 9620:1 10453:1 251:1 18235:1 4769:1
3007:1 3572:1 13207:1 20459:1 5124:1 722:1 12658:1 9406:1 11953:1
2312:1 24499:1 7036:1 7664:1 18155:1
5499:1 3704:1 14028:1 8698:1 4636:1 14925:1
25514:1 5049:1 6823:1 20768:1
21267:1 10424:1 18977:1 7714:1
17176:1 28124:1 28791:1 13828:1
12831:1 1754:1 22050:1 26156:1 12471:1 10444:1 17666:1
9915:1 6706:1 17196:1 9594:1 22605:1 25010:1 27015:1 16290:1 18155:1
6371:1 27629:1 13556:1 8776:1 13329:1 9894:1 1297:1 2663:1 3045:1
5256:1 8151:1 12471:1 995:1 9634:1 21186:1 11406:1 687:1
12471:1 1297:1 17730:1 10143:1 3186:1 19835:1 25182:1 15031:1
20904:1 13084:1 7560:1 1996:1 7348:1
26:1 23536:1 28186:1 22009:1 23075:1 4635:1
17673:1 7830:1 563:1 6269:1 4161:1 14401:1 25299:1 20010:1
10950:1 24499:1 2137:1 9371:1 847:1
769:1 26390:1 855:1 13186:1 7466:1
3036:1 4549:1 17494:1 27521:1 5006:1 25547:1
24901:1 26933:1 5635:1 25301:1 24351:1 17171:1
21857:1 18667:1 12303:1
8256:1 24050:1 3789:1 26835:1 28643:1 21809:1 26072:1
11556:1 22354:1 8133:1 13887:1 25389:1
26963:1 12852:1 418:1 6740:1 12279:1 1316:1 27272:1 220:1 3720:1
18793:1 20370:1 4097:1 10569:1 26188:1 27669:1
27773:1 26634:1 13908:1 14910:1 3720:1 10444:1 9280:1 16929:1
9076:1 18439:1 23813:1 1297:1 7309:1 18388:1 8302:1 25010:1 21076:1 18155:1
7411:1 24629:1 28208:1
7348:1 8582:1 27622:1 18793:1 28730:1 26625:1
16376:1 23296:1 20329:1
16884:1 20130:1 8584:1 26604:1 15435:1 326:1
10363:1 21186:1 12658:1 8323:1 2810:1 13186:1 729:1 21292:1
27837:1 1297:1 26461:1 8302:1 3681:1 16290:1 18155:1
16264:1 5115:1 8863:1 11525:1 25010:1 10444:1
8321:1 7680:1 8698:1
11467:1 19855:1 27230:1 7754:1
20979:1 2810:1 21232:1 27622:1
16374:1 28122:1
10586:1 11687:1 12471:1 947:1 20876:1 2174:1 21290:1 1018:1 25267:1
1283:1 7288:1 21458:1 2530:1 16539:1 10444:1 11022:1
28417:1 10997:1 16923:1 11289:1 21594:1
21795:1 8133:1 18889:1 9595:1 24499:2 25176:1 15836:1
25790:1 21002:1 18793:1 25890:1 20242:1
26156:1 25838:1 25010:1 17844:1 18155:1
939:1 9260:1 7466:1 2015:1 8356:1 13887:1
13661:1 22050:1 26381:1 6823:1
11741:1 7608:1 16799:1 891:1 8955:1
1297:1 3062:1 17346:1 26319:1 22538:1 9900:1 220:1
4861:1 27114:1 25797:1 3064:1
17917:1 13688:1 1638:1 9639:1 3027:1 18793:1 26518:1
5024:1 9313:1 3328:1 16798:1 27589:1 13102:1
12237:1 17834:1 14986:1 12954:1 20296:1 25603:1 2015:1 17947:1
307:1 22847:1
1297:1 18756:1 28643:1 25459:1 11932:1 15762:1
12471:2 15067:1 12715:1 16553:1 6528:1 24180:1
19412:1 15044:1 21436:1 14649:1
24009:1 8257:1 18270:1 4238:1 25860:1 24499:1 13044:1 13300:1
13655:1 5952:1 14041:1 12279:1 1896:1
26682:1 7675:1 24499:1 17197:1 17073:1
11386:1 24050:1 4577:1 19242:1
10802:1 17447:1 297:1 15989:1 6907:1 17947:1 1296:1 28181:1 220:1 601:1
16264:1 5115:1 6269:1 24499:1 4028:1 9301:1
17241:1 3475:1 2519:1 18408:1 18308:1
1776:1 13055:1 17317:1 11619:1 10569:1 10424:1 26353:1
26406:1 9418:1 10444:1 7321:1 18992:1
6093:1 5626:1 5476:1 1685:1 13887:1
3227:1 10569:1 27550:1 10199:1 27975:1 25979:1
2130:1 3087:1 13887:1
6876:1 8582:1 16938:1 11139:1 10453:1 19707:1 2579:1 15871:1
2956:1 4434:1 11325:1 14931:1 24499:1 16598:1 3252:1
14931:1 21613:1 7625:1 3720:1 5033:1 25536:1
12031:1 14684:1 17845:1 6101:1 12807:1 24499:1 17852:1 23291:1 9406:1
18239:1 23360:1 25945:1 24499:1 10444:1 8724:1 25524:1 5378:1
2853:1 24615:1 18977:1 22848:1 7956:1 25547:1
4824:1 10055:1 8215:1 2810:1 27622:1 18793:1 12259:1
6700:1 22218:1 25519:1 21613:1 3794:1 16553:1
3569:1 2197:1 2121:1 11619:1 19884:1
26761:1 1297:1 28348:1 11586:1 5449:1 24499:1 7876:1
1225:1 12932:1 5465:1 855:1 7830:1
19641:1 2642:1 3994:1
18608:1 16013:1 18977:1 19835:1 25524:1 27665:1
12831:1 15868:1 21766:1 21548:1 8302:1 14550:1 24230:1
9448:1 20752:1 21436:1 3895:1
10055:1 10810:1 11863:1 10950:1 10453:1 2810:1
5010:1 3092:1 27425:1 17947:1
691:1 3186:1 4822:1 26136:1 7348:1
1100:1 17740:1 1559:1 25369:1 2810:1
439:1 18793:1 28431:1 16189:1 17710:1
23549:1 1040:1 3766:1 19884:1 24467:1 24499:1 21375:1 19957:1 13828:1
17196:1 6020:1
15768:1 7439:1 6713:1 2642:1 18848:1 21493:1 24499:1 22604:1 5970:1 3827:1
7411:1 5024:1 9313:1
13349:1 2137:1 26518:1 15049:1
