25600:1 28106:1 5424:1 21812:1
9532:1 2989:1 9010:1 18092:1 12645:1
9850:1 10407:1 19902:1 2936:1
27715:1 11575:1 26709:1 15802:1 21547:1 9639:1 6218:1
1100:1 9667:1 8133:1 12464:1 25389:1
14008:1 1882:1 8454:1 15702:1
9661:1 21350:1 13887:1 5833:1 16089:1 14550:1 23572:1 1366:1
12384:1 23519:1 23407:1 20701:1 28676:1 13887:1
9911:1 8356:1
4820:1 3191:1 10444:1 16013:1
139:1 19651:1 3965:1 16028:1
21613:1 23785:1 14396:1
8872:1 28387:1 17664:1 11104:1 22139:1 5017:1
2899:1 24499:1 24217:1 22931:1 21050:1
5807:1 14409:1 19345:1 16923:1 6723:1 9362:1 12449:1 23705:1
6159:1 25973:1 4072:1 1297:1 7581:1
10586:1 12471:1 8582:1 6823:1 22300:1 26328:1 19277:1 13843:1
11235:1 27135:1 1040:1 2810:1 28127:1 28295:1 7786:1
21610:1 27742:1 13693:1 6396:1 5769:1
1634:1 10444:1 11704:1 12235:1 11969:1
9446:1 14546:1 13211:1 14645:1 24180:1
3027:1 8917:1 8133:1 20242:1 25600:1 23499:1 9855:1
7439:1 12471:1 14355:1 28592:1 4664:1 3186:1 20610:1 9113:1
1619:1 19434:1 24499:1 10444:1 10828:1 7348:1
9773:1 3911:1 7423:1 10636:1
3027:1 8698:1 8215:1 10444:1 28676:1
18552:1 26587:1 19318:1 19037:1 9194:1 21499:1
7220:1 27449:1 18289:1 8215:1
10444:1 321:1 3361:1 14399:1 21671:1
26963:1 10444:1 7220:1 8698:1 16464:1 11532:1
19175:1 15013:1 23893:1 2463:1 25945:1 24499:1 7348:1
15926:1 26892:1 25559:1 15364:1
55:1 2075:1 13578:1 3572:1 414:1
11949:1 20377:1 5778:1 21715:1
2105:1 19765:1 16802:1 25061:1
6040:1 10444:1 220:1 8136:1
18557:1 28471:1 5203:1 25256:1
3027:1 1213:1 12852:1 4253:1 1606:1 6004:1 21499:1
1814:1 18229:1 21417:1 21350:1 5485:1
10765:1 9532:1 15306:1 9513:1 14351:1
6112:1 26709:1 847:1 15134:1 26485:1 9639:1 2972:1
5986:1 8151:1 10277:1 3268:1 4415:1 28643:1 95:1 13750:1
23518:1 25339:1 377:1 9301:1
12831:1 3058:1 18841:1
20162:1 21879:1 24499:1 17874:1
1013:1 21368:1 4324:1 16758:1 18170:1
3191:1 10597:1 13046:1 11343:1 6186:1 13926:1
6086:1 14451:1 13072:1 8011:1 4352:1 17777:1
18608:1 26709:1 1927:1 16665:1 563:1 13542:1 5198:1
24236:1 23012:1 23520:1 422:1 11106:1 16554:1 9083:1
14897:1 20529:1 9939:1 26273:1 7411:1 24499:1 6396:1
22721:1 15371:1 26910:1 13229:1 13926:1 22206:1
11235:1 18858:1 4860:1 12658:1 2810:1 22994:1
23518:1 22869:1 12471:1 24259:1 6461:1 3186:1 10444:1
7223:1 14658:1
15507:1 27310:1 9639:1 13196:1 25:1
16397:1 5778:1 25301:1 3280:1 3186:1 28707:1 10105:1
22576:1 12234:1 1297:1 14303:1 20592:1 7861:1 5383:1
22620:1 634:1 16566:1 20204:1 21525:1 15516:1 25334:1 25547:1
16827:1 1297:1 1616:1 15187:1 21991:1 16013:1 15031:1
4441:1 17881:1 8804:1 15088:1 8770:1
8412:1 491:1 9406:1 16013:1 12954:1
15802:1 14619:1 28417:1 3234:1 20976:1
19518:1 7776:1 19729:1 560:1 26328:1 28454:1
19791:1 17615:1 13329:1 4847:1 14033:1 1411:1 18381:1 26892:1
791:1 4543:1 18306:1 8039:1 6309:1 28707:1
6433:1 19495:1 11982:1 17150:1
28027:1 9030:1 13733:1 751:1 1297:1 3919:1 4439:1
13274:1 12101:1 2491:1 4072:1 4643:1 8770:1
1072:1 19227:1 2128:1 16090:1 24269:1 2541:1 95:1 27583:1 3020:1
25194:1 14064:1 9287:1 15011:1 3457:1 25559:1
18847:1 21226:1 21186:1 15432:1 25600:1 18388:1 27086:1
4806:1 23015:1 15338:1 1297:1 5575:1
22118:1 20194:1 19884:1 19919:1 8356:1 26880:1 14776:1
6818:1 1941:1 5567:1 16834:1 5815:1 23037:1 28707:1
7220:1 21484:1 26448:1 21812:1
16834:1 5128:1 24288:1 20310:1
18552:1 3206:1 12471:1 448:1 4977:1
15488:1 9010:1 26958:1 8402:1 12645:1 12877:1
8444:1 2509:1 22052:1 2978:1 11352:1
11619:1 7735:1 20393:1 22931:1 14817:1
25600:1 18569:1 21610:1 8829:1 21939:1
56:1 13887:1 13072:1 2075:1 22366:1 10444:1 23078:1 27230:1
6562:1 5449:1 25044:1 22855:1 28356:1
25600:1 11041:1 8667:1 21812:1 5140:1
7343:1 5928:1 11980:1 2769:1 10189:1 25010:1 27102:1
18237:1 16478:1 8681:1 55:1 16496:1 19105:1
23358:1 20160:1 18843:1
7432:1 13887:1 1864:1 2316:1 4583:1 855:1
26709:1 22628:1 13750:1 11022:1 25600:1
28417:1 18402:1 11989:1 21613:1 3007:1 27600:1 14061:1
18706:1 15432:1 14221:1 21127:1 27086:1 55:1 23635:1 388:1
20912:1 12471:1 6000:1 12783:1 19088:1 10444:1 28053:1
21484:1 5928:1 6292:1 3186:1 10444:1 23046:1
18163:1 22468:1 3572:1 847:1 3843:1 24499:1 24773:1 220:1
832:1 21300:1 809:1 24731:1
27086:1 12471:2 19702:1 13361:1 15432:1 25781:1 18955:1 11348:1 17414:1 7348:1
5449:1 2810:1 23527:1 28676:1 6968:1 1287:1
10970:1 27928:1 5625:1 7039:1 21274:1
19322:1 24236:1 19329:1 2075:1 12509:1 5322:1
14106:1 28628:1 3051:1 21547:1 12105:1 3063:1
1791:1 10444:1 3460:1 13641:1
23901:1 3186:1 25902:1 23657:1 4689:1
5178:1 21621:1 24191:1 22389:1
3168:1 10973:1 15063:1 9050:1 12144:1 21857:1 17290:1 2316:1
23513:1 20270:1 11619:1 7266:1
17662:1 15920:1 8975:1 19345:1 8836:1 9083:1
26156:1 7673:1 23427:1 1245:1 18608:1
12969:1 22595:1 1297:1 26306:1 832:1 26518:1
27476:1 220:1 25334:1 5176:1
20835:1 8193:1 7443:1 21890:1 17666:1
20982:1 15253:1 21653:1 891:1 8408:1
9267:1 26518:1 26590:1 15602:1 10444:1 24465:1
4854:1 23358:1 14290:1 2543:1 18308:1
11692:1 6172:1 13584:1
6818:1 24727:1 25474:1 21547:1
17270:1 25348:1 3186:1 24499:1 10444:1 7348:1
3027:1 5928:1 11718:1 19037:1 25600:1 25964:1
16330:1 24199:1 9347:1 3186:1 20129:1 14033:1 55:1
2700:1 16923:1 7728:1 3175:1 22299:1
10551:1 12750:1 25:1 11799:1
9939:1 22722:1 2370:1 25945:1 9595:1 12002:1 850:1
20385:1 27080:1 17324:1 21185:1 28011:1
771:1 26188:1 19668:1 25999:1
28395:1 5790:1 25926:1 24499:1 27126:1 9096:1
19209:1 2054:1 24769:1 19122:1 1396:1 23882:1 3027:1 13655:1 12471:1 2810:2 16630:1 13584:1 2316:1 5242:1
22047:1 24945:1 11028:1 26079:1 28419:1
21658:1 20912:1 20335:1 12831:1
20912:1 8193:1 12471:1 8510:1 12560:1 13240:1 12783:1
26963:1 22746:1 4415:1 11538:1 16080:1 6894:1
20488:1 1522:1 9072:1 19924:1 8786:1
16399:1 33:1 7298:1
3903:1 24096:1 17312:1 12:1 24499:1 13641:1
21877:1 7648:1 9004:1 1114:1 14046:1 26447:1 13887:1
28106:1 7669:1 28377:1 15432:1 25600:1 11724:1 6294:1 27086:1
7935:1 28356:1 21881:1 220:1 27946:1
20511:1 27733:1 17871:1 28021:1 8733:1
18114:1 12745:1 27743:1 20010:1 7183:1
19105:1 16747:1 16923:1 23990:1 13186:1
15345:1 25094:1 18163:1 9301:1 24631:1 2218:1
21250:1 25600:1 9595:1 24499:1 55:1 13008:1
18888:1 26963:1 10036:1 10652:1 5383:1
3864:1 1253:1 6008:1 24499:1 2541:1 13641:1
13113:1 5769:1 8292:1 26328:1 10828:1 12783:1 2062:1
13396:1 24615:1 3864:1 21591:1 813:1 24499:1 27809:1 24267:1
16221:1 9481:1 5465:1 8975:1
25081:1 17975:1 14921:1 3268:1 3045:1
24301:3 17834:1 19818:1 3589:1 26958:1 16484:1 9418:1 28359:1
10017:1 10444:1 10277:1 14215:1
471:1 26605:1 7714:1 28070:1 28751:1
26963:1 20686:1 28377:1 23326:1 411:1 26349:1
2370:1 11104:1 17664:1 21547:1 8057:1 20728:1 388:1
19453:1 11367:1 10444:1 3191:1
26963:1 1297:1 5458:1 28457:1 27904:1 17584:1 9166:1
7219:1 4150:1 20772:1 1297:1 14675:1
26786:1 23182:1 4391:1 1180:1 12443:1 429:1 25334:1
4857:1 2372:1 15920:1 23674:1
1529:1 24731:1 19203:1 24500:1 13887:1 24859:1
27777:1 3417:1 19352:1 13300:1 15891:1 1272:1
18191:1 4415:1 20639:1 5962:1 21002:1 28704:1 1587:1 19897:1
4944:1 1313:1 27230:1 9836:1 28619:1
26064:1 1297:1 18068:1 9932:1 14221:1 23552:1
18153:1 7728:1 26781:1 17730:1 813:1 10444:1 23527:1 27660:1
27461:1 23291:1 17171:1
23527:1 17113:1 11619:1 17666:1
12471:1 14596:1 23258:1 28676:1 5740:1 13843:1
18191:1 17525:1 24499:1 7999:1 6112:1 12399:1 18505:1 12471:1 13887:1 11384:1 28086:1 10997:1
10444:1 23527:1 8302:1
5602:1 5567:1 8193:1 14310:1 10796:1 5746:1
14581:1 28643:1 10410:1 4324:1 7714:1
28637:1 21039:1 9406:1 11074:1 15039:1
24301:1 19157:1 5499:1 13887:1 2366:1 14343:1 23602:1 11619:1 2344:1 1864:1 18674:1 21407:1 220:1 7348:1
8165:1 5608:1 13186:1
8685:1 7030:1 8698:1 4848:1 10444:1 25334:1
26729:1 7497:1 24166:1 3125:1
17881:1 28146:1 10410:1 16681:1 4415:1
15345:1 23052:1 25786:1 13926:1 4575:1 25066:1 5103:1
25962:1 14896:1
8386:1 2195:1 28284:1 5693:1
25903:1 13887:1 8377:1 5077:1 12783:1 25256:1 17156:1
26867:1 16689:1 14221:1 26809:1 12471:1 5704:1 13843:1
25094:1 21671:1 3925:1 7196:1
28027:1 11882:1 8797:1 14068:1 13926:1 19204:1 16168:1 10444:1 690:1 2514:1 9532:1 220:1 17666:1
12463:1 20186:1 7196:1 7301:1
13367:1 8020:1 22746:1 10444:1 5790:1
28721:1 4203:1 5449:1 6119:1 24791:1 25334:1
2956:1 9532:1 13373:1 3574:1 4649:1
26945:1 12471:1 17172:1 13926:1 20835:1 20529:1
14221:1 21484:1 24791:1 26213:1 10241:1
8426:1 5693:1 12033:1 3017:1 6267:1
25105:1 10444:1 19495:1 16155:1
21225:1 25182:1 12390:1 10241:1
3027:1 7876:1 5046:1 27837:1 14450:1
27198:1 7411:1 17116:1 1249:1
23602:1 2370:1 25529:1 23291:1 4643:1 8166:1
21323:1 4111:1 4807:1
5844:1 25600:1 21250:1 15814:1
25790:1 26165:1 448:1 10222:1
16494:1 4693:1 10828:1 22245:1 14016:1
23403:1 27622:1 24572:1 10453:1
3993:1 1339:1 26363:1 3720:1 17666:1
10444:1 2075:1 17607:1 19815:1 2296:1
12708:1 27080:1 9532:1 9655:1 23705:1 27272:1 7029:1 20836:1
11815:1 4116:1 1864:1 2462:1 6186:1 20354:1
27675:1 28444:1 16155:1 17666:1
21484:1 22328:1 12212:1 5391:1 20360:1 23246:1
25600:1 23358:1 1074:1 8057:1 14469:1
12471:1 18667:1 3926:1 18204:1 26165:1 15794:1 16681:1 9301:1
14216:1 26444:1 19094:1 21939:1
38:1 4703:1 20476:1 4801:1 18968:1 16211:1 13258:1 14022:1 21093:1
22734:1 23089:1 14760:1 6235:1
9307:1 19902:1 18581:1 9513:1 21831:1 23360:1
9853:1 24499:1 23923:1 18596:1 12366:1
5815:1 22739:1 28259:1 16593:1
14221:1 24471:1 27108:1 13276:1
9532:1 1132:1 21455:1 25945:1
2769:1 22604:1 11218:1 17850:1
17150:1 27360:1 10597:1 2810:1 14500:1 9629:1 987:1 10444:1 13186:1
2372:1 23884:1 15465:1
38:1 4755:1 12471:2 28522:1 23527:1 10742:1 19880:1
2956:1 6138:1 23884:1 12371:1 20422:1 11408:1 14057:1
20083:1 11677:1 3893:1 24465:1
6876:1 23602:1 23884:1 23084:1 3186:1 2372:1 9532:1
6018:1 25871:1 23008:1 20976:1 24391:1 18175:1 6326:1
24423:1 13904:1 3523:1 14351:1 25709:1 2409:1
26963:1 25640:1 2810:1 17150:1 17444:1 7714:1
10444:1 5449:1 3186:1 21874:1 13508:1 23997:1 9324:1
5624:1 12545:1 11398:1 13614:1
20300:1 1589:1 16058:1 4195:1
1864:1 1297:1 9347:1 16310:1 6243:1 6378:1
24301:2 24578:1 6371:1 14144:1 4763:1 24839:1 16655:1 8698:1 12471:1
10444:1 24773:1 26709:1 17237:1
6773:1 10856:1 28085:1 14145:1 1342:1 12639:1 5465:1 25059:1
19264:1 27472:1 22453:1 27533:1 15243:1 28506:1
21671:1 23029:1 13279:1 25059:1 7324:1
8439:1 22083:1 23884:1 3168:1 11230:1 23620:1
19880:1 5253:1 12851:1 25926:1 18366:1 5644:1 9166:1
26374:1 7504:1
20814:1 21002:1 21300:1 27035:1
25810:1 25021:1 23291:1 10444:1
1656:1 12510:1
10329:1 271:1 18991:1 8510:1 21121:1 2700:1 16443:1 5383:1
12835:1 23586:1 24391:1 51:1
10708:1 3740:1 24499:1 5334:1 17892:1
27707:1 23013:1 9595:1 15295:1 10444:1 21407:1
10444:1 13529:1
771:1 8361:1 23092:1 25336:1 13926:1 24420:1 15622:1
12237:1 16332:1 7202:1 28716:1 14450:1
14310:1 21983:1 14219:1 1250:1 17237:1
7275:1 24459:1 2810:1 2709:1 13926:1 16553:1 25267:1 367:1
24769:1 13046:1 11022:1 8747:1 12560:1 870:1 12471:1 4643:1 6396:1 558:1
11079:1 7090:1 16478:1
14595:1 27335:1 24517:1 823:1
6371:1 5115:1 20772:1 25389:1 18722:1 10828:1
26786:1 16464:1 11343:1 7669:1 23715:1
8748:1 1147:1 22032:1 14185:1
14106:1 9244:1 4415:1 11106:1 6186:1 1193:1
17089:1 2137:1 7120:1 13738:1
17310:1 4775:1 1297:1
17358:1 20912:1 18608:1 648:1 12783:1
7149:1 24499:1 14290:1 1074:1 15253:1
25600:1 26709:1 6789:1 21610:1 8906:1
25180:1 16155:1
4854:1 15802:1 24289:1 8302:1 18502:1 20010:1 24180:1
17720:1 25600:1 8133:1 28377:1 11022:1
16464:1 15630:1 12784:1 13693:1 18296:1 8804:1 7207:1
9168:1 272:1 28387:1 9432:1 15222:1 3827:1
2509:1 2642:1 11022:1 16554:1 19890:1 9166:1
8917:1 12471:1 12390:1 22860:1 13843:1 18306:1 6812:1 2579:1 2937:1
27218:1 21297:1 10272:1 23602:1 12954:1
14645:1 13022:1 14380:1 7983:1 20611:1 12973:1 8302:1
20806:1 10063:1 23884:1 15836:1
26937:1 4944:1 56:1 21265:1 10406:1
23358:1 19167:1 27633:1 21812:1 1074:1 1587:1 9551:1
14921:1 4195:1 23592:1 6972:1 17713:1 27247:1 15819:1
12471:1 4677:1 24704:1 24465:1 9362:1
25600:1 4575:1 21932:1 13186:1 15116:1
21613:1 4088:1 24500:1 20391:1 5485:1 21787:1 24499:1 5175:1 220:1
11190:1 28439:1
21610:1 14976:1 3525:1
21879:1 2121:1 13329:1 5835:1 4020:1 16923:1
12145:1 15309:1 28040:1 4441:1 3606:1 1924:1
14456:1 19332:1 19295:1 23572:1 10444:1
14605:1 3361:1 20976:1 10444:1
18557:1 10782:1 5820:1 1040:1 18374:1
483:1 3027:1 25903:1 19037:1 16836:1 25256:1
14915:1 17150:1 7439:1 24459:1 5278:1 2810:1 24499:1 16155:1 10586:1 28395:1
26709:1 5200:1 28712:1 28643:1
11939:1 22150:1 21300:1 6891:1 12954:1
28106:1 2370:1 16689:1 15432:1 25600:1 28377:1 27086:1
1297:1 13614:1 5693:1 17645:1 6968:1 14306:1
19468:1 24653:1 15000:1
12384:1 24791:1 14290:1 17664:1 27744:1 25010:1
6198:1 1852:1 21954:1 22075:1 10444:1 1287:1
18557:1 13255:1 27070:1 25926:1 28686:1 26478:1
17150:1 6562:1 6641:1 16879:1
21805:1 7241:1 25053:1 2229:1
12745:1 19320:1 23884:1 12954:1 15926:1 27272:1
22848:1 26478:1 14415:1 7220:1 25600:1 6030:1
27080:1 17848:1 11349:1 15384:1 18515:1 13887:1
3186:1 623:1 22881:1 27622:1
21610:1 18706:1 23508:1 14896:1
17370:1 27080:1 6326:1 15730:1
28705:1 26363:1 15177:1 16923:1 16989:1
25465:1 25927:1 10444:1 27660:1 16013:1 13501:1
20407:1 416:1 10444:1 11619:1 24451:1
8698:1 14220:1 5970:1 1283:1
20912:1 8256:1 19833:1 23246:1 5531:1 12783:1 24547:1
1814:1 9052:1 21613:1 15573:1
21368:1 17619:1 4439:1 7714:1
2008:1 769:1 2561:1 20903:1
26:1 10854:1 7951:1 11868:1
28188:1 25250:1 16478:1
12384:1 19850:1 4847:1
10470:1 20529:1 1552:1 22376:1 9361:1 25600:1
15417:1 26793:1 2652:1 1610:1 20593:1 14789:1
2231:1 14361:1 11248:1 26319:1 3186:1 8361:1 10444:1
21928:1 3864:1 25010:1 10444:1 3687:1 20342:1 15877:1 24499:1 15997:1 28454:1 15465:1
25600:1 25483:1 24444:1 13186:1 1539:1
307:1 12790:1 9513:1 19216:1 22128:1 25334:1
22609:1 12471:1 24506:1 14415:1 6186:1 22791:1 28454:1 14306:1
13643:1 4267:1 7335:1 10120:1
5002:1 5991:1 21539:1 24391:1
19322:1 14675:1 19135:1 26273:1 448:1
13934:1 13655:1 10303:1 2180:1 24656:1
21226:1 28387:1 26437:1 23619:1 25600:1 10444:1 3255:1
21226:1 1710:1 18323:1 11983:1 13557:1 16200:1
28370:1 5449:1 27114:1 5055:1 27812:1
5877:1 9160:1 718:1 25225:1
6530:1 12987:1 25465:1 22991:1 12033:1 13571:1 2121:1
898:1 16654:1 24311:1 2121:1
21174:1 12471:1 20376:1 28106:1 55:1 4578:1 10761:1
6562:1 23213:1 11703:1 13887:1 18155:1
19479:1 22746:1 10444:1 15871:1
3027:1 15031:1 4712:1 26210:1 21265:1 28676:1 17834:1 13887:1 25547:1
686:1 14409:1 2128:1 25945:1 6159:1 10152:1
23636:1 9130:1
12212:1 19651:1 25262:1 2075:1 11729:1 2812:1 23037:1
225:1 13089:1 2121:1 16435:1 26975:1 980:1 28188:1
769:1 12132:1 13693:1 4847:1 14221:1 208:1 15432:1 10742:1 27086:1
10486:1 13942:1 12435:1 10175:1 10852:1 24499:1 13951:1 11211:1
12471:1 19960:1 10587:1 6882:1 22638:1 7395:1 10444:1 12070:1
25348:1 13926:1 15786:1 10444:1 14896:1
18201:1 8197:1 9699:1 12783:1
14792:1 268:1 1272:1 21547:1 13641:1 10951:1
8378:1 1334:1 26701:1 21204:1 14351:1
7127:1 2105:1 9118:1 13887:1
449:1 21356:1 25559:1 28040:1
18552:1 12471:1 4591:1 14221:1 27499:1 13843:1
3186:1 26709:1 13529:1 15326:1
9182:1 9533:1
12711:1 5094:1 23837:1 6291:1 15884:1 27521:1
683:1 21402:1 28487:1
27729:3 12471:1 7728:1 26920:1 9203:1 14761:1 24216:1 17657:1
18759:1 10329:1
8197:1 28324:1 7953:1 4847:1
5738:1 20529:1 13964:1 16013:1 15106:1
19320:1 6254:1 1297:1 3963:1 19130:1
6159:1 10007:1 9420:1 1148:1
16080:1 21323:1 9620:1 2877:1
26963:1 13055:1 6335:1 14351:1 12371:1
22311:1 2221:1 18848:1 18793:1 10444:1 16081:1
9104:1 27065:1 25182:1 14089:1 24854:1
3350:1 21977:1 15260:1 449:1 18767:1
10444:1 15616:1 17275:1 7462:1 20836:1
22885:1 1297:1 14646:1
28217:1 23884:1 4829:1 23665:1
21766:1 7535:1 21678:1 26379:1 7714:1 24499:1 21390:1 4847:1 17961:1
17140:1 9549:1 4150:1 5563:1 16374:1 1297:1 10783:1 15205:1
9957:1 24499:1 888:1 27742:1 4387:1 8972:1 20010:1 13887:1
17695:1 13255:1 381:1 20874:1 3713:1 17876:1 6348:1
17834:1 4649:1 3589:1 12334:1 19001:1
10444:1 8893:1 9003:1 25559:1 15031:1
9720:1 6705:1 8193:1 1297:1 13086:1
9931:1 11566:1 5115:1 16085:1 15891:1
1287:1 11799:1 27521:1 8133:1 23282:1
25339:1 6159:1 27742:1 24483:1 14938:1 9301:1
5078:1 9513:1 23834:1 22931:1 24777:1 26079:1 27165:1 220:1
4415:1 3484:1 9271:1 13549:1 21300:1 7423:1 25890:1 400:1
4065:1 14343:1 12683:1 7728:1 22503:1 26518:1 6455:1
9418:1 9532:1 9301:1 5703:1 22471:1 7348:1
20912:1 7009:1 12783:1 15432:1 1522:1 14556:1 388:1 12471:1 23037:1 11598:1 27086:1
1695:1 3281:1 23890:1 3963:1
24502:1 9461:1 13457:1 8136:1 27615:1 14473:1 4441:1 6186:1 24499:1 1902:1
9513:1 12987:1 9187:1 3020:1 10444:1 3048:1 27660:1
16374:1 12471:1 24081:1 26273:1 18296:1 27977:1
2555:1 12471:1 25266:1 12807:1 19884:1 9765:1 24422:1 6305:1
25600:1 10059:1 22196:1 5553:1
769:1 3572:1 28040:1 4584:1 2401:1 14896:1 6348:1 20836:1
16528:1 12784:1 23050:1 4805:1 11288:1 15575:1 10105:1
105:1 7297:1 22288:1 4643:1 13048:1 6920:1
25615:1 13276:1 25593:1 2062:1 4015:1
8197:1 12471:1 20529:1 9894:1 3186:1 10444:1
12471:1 23282:1 22959:1 24329:1 14149:1 5778:1
4909:1 6086:1 23037:1 9165:1 12783:1 2370:1
7127:1 14506:1 3720:1
28762:1 14906:1 10614:1 26508:1 20992:1 13300:1
3151:1 220:1 19061:1
20351:1 26610:1 14587:1 14041:1 1287:1
20511:1 19314:1 14416:1
23333:1 9639:1 3359:1 28377:1
28011:1 27077:1 10695:1 25600:1 13638:1 10761:1
25926:1 1236:1 1153:1 1313:1
7034:1 25926:1 19329:1 3063:1 7619:1
20156:1 24948:1 2121:1 20212:1 11341:1 13926:1 6396:1
768:1 5198:1 21831:1 10444:1 15836:1
9313:1 21539:1 3954:1 5024:1 16013:1
424:1 24578:1 27056:1 7776:1 21287:1 947:1 13706:1
18220:1 18686:1 27589:1 4238:1
1189:1 18242:1 18402:1 3713:1 3804:1 25547:1
25339:1 19180:1 4097:1 4477:1 9301:1
3027:1 23965:1 12852:1 8133:1 573:1 5928:1 6362:1
5237:1 28122:1 3389:1 16374:1 27742:1 24483:1 220:1 27520:1
5449:1 10444:1 26210:1 13887:1 26618:1
12148:1 20518:1 26114:1 10786:1 12557:1
8386:1 26385:1 1616:1 25334:1 21613:1
27818:1 15730:1 23945:1 28040:1 20242:1
11596:1 23984:1 563:1 3186:1 22288:1 10444:1 16013:1
10444:1 19900:1 12388:1
19827:1 9187:1 24572:1 18876:1 9595:1 27230:1
5844:1 12471:1 26709:1 9836:1 13763:1 14221:1 14310:1 12783:1
14587:1 10444:1 16553:1 4649:1
8906:1 8215:1 27518:1 19721:1 28377:1 23582:1 13848:1 8639:1 27105:1 6876:1
27354:1 24791:1 18721:1 2305:1
24062:1 8356:1 19440:1 4116:1 12371:1 28417:1 15819:1
15974:1 4393:1 16570:1 19717:1 27140:1 17488:1 28387:1 24046:1 3139:1
4712:1 11215:1 26781:1 3900:1 20724:1
6274:1 22131:1 12578:1 12002:1 7765:1 20343:1
25105:1 13612:1 8351:1 8452:1 25600:1 22305:1 55:1 220:1 3785:1
3691:1 21135:1 7217:1 20527:1 16031:1 1132:1
10225:1 21354:1 20982:1 24499:1 10444:2 25303:1 27102:1
9915:1 21297:1 13054:1 12253:1 6235:1
20529:1 10444:1 23834:1 1631:1
23940:1 10742:1 10471:1 8205:1
19651:1 28609:1 9639:1 10742:1 24180:1
4443:1 13504:1 5115:1 14276:1 2810:1 4441:1 16274:1 10810:1
1323:1 3191:1 17963:1 6093:1 26576:1 14027:1
6827:1 17293:1 13750:1 11891:1
6159:1 28011:1 9420:1 24499:1 18461:1
3027:1 13750:1 22667:1 26659:1 3063:1 16975:1
26945:1 23305:1 10875:1 18366:1 14144:1
5903:1 9133:1 2810:1 439:1 17774:1 1763:1
26786:1 28484:1 26148:1 6186:1 13887:1 2430:1
3027:1 5877:1 6086:1 9197:1 4847:1 14221:1 2011:1 5726:1
5449:1 11367:1 11408:1 9827:1 23033:1
2529:1 2218:1
3774:1 28387:1 25182:1 13529:1 24880:1
18243:1 23144:1 7593:1 21250:1
13688:1 21879:1 3154:1 6618:1 28193:1 11691:1 10954:1
12745:1 28329:1 5867:1 23176:1 3525:1 15926:1 13926:1
20529:1 3328:1 17541:1 23291:1 25256:1 25903:1
22604:1 10101:1
6291:1 27722:1 20634:1 21274:1
17466:1 12675:1 12370:1 25462:1 22786:1 24859:1 27979:1 15781:1
22284:1 24839:1 20254:1 19564:1 20342:1 16887:1 25982:1
16554:1 13165:1 11520:1 3441:1 448:1
2666:1 8773:1 8237:1 4807:1
18561:1 10105:1 19329:1 18702:1 18068:1 3475:1 11770:1 220:1 7335:1
24599:1 4186:1 791:1 4177:1 9928:1 13926:1 21390:1 1543:1 13887:1
27207:1 14281:1 6292:1 14064:1 15297:1 25965:1
14351:1 18896:1 12947:1 4560:1 27853:1
5115:1 9406:1 14276:1 2810:1 4441:1 4932:1 5322:1 6920:1
12237:1 14191:1 14609:1 8197:1 22619:1 5649:1
3007:1 13944:1 12028:1
4755:1 13693:1 13482:1 27048:1 25010:1 6326:1 28519:1
20820:1 26867:1 3000:1 15374:1 20272:1 3744:1 6326:1
21250:1 28377:1 16031:1 21613:1 23037:1 9639:1
5635:1 1297:1 9532:1 25010:1 16945:1 12596:1
14221:1 21613:1 769:1 20378:1 14325:1
28621:1 2054:1 12471:1 3893:1 27352:1 2316:1 6165:1 19231:1
25464:1 16620:1 20160:1 28377:1
28027:1 1703:1 21151:1 20895:1 7625:1 3859:1
17664:1 12852:1 16833:1 1236:1 9265:1
2833:1 1418:1 23034:1 10828:1 24289:1
7412:1 13207:1 10655:1 16680:1 24499:1 16975:1
3191:1 6565:1 11949:1 3348:1 10444:1 10828:1
17792:1 20992:1 5626:1 9187:1 4423:1 3151:1 15926:1 12471:1 10437:1
22812:1 10452:1 14451:1 152:1
710:1 23884:1 11230:1 3186:1 11408:1 17910:1
10603:1 877:1 21831:1 17876:1 6825:1
18636:1 12471:1 7958:1 10260:1
16239:1 18230:1 26518:1 16481:1 6972:1 18366:1
27622:1 2121:1 891:1 5117:1
563:1 3720:1 10444:1 14451:1 5956:1
4250:1 12471:1 6483:1 12404:1 20912:1 23901:1 19040:1 27926:1 15576:1
7040:1 20529:1 9413:1 21812:1
24572:1 8299:1 18896:1 13396:1 16013:1
16630:1 20094:1 5795:1 16464:1 19784:1 24499:1 10444:1 19954:1
14684:1 27425:1 11619:1 10286:1 20874:1 10444:1 20310:1
18278:1 10970:1 2197:1 14099:1 28643:1
18911:1 3099:1 11689:1 23316:1 15260:1 13380:1
10849:1 20194:1 14759:1 4101:1 26580:1 10444:1 8639:1
13367:1 768:1 6594:1 16923:1 14921:1 4678:1 24499:1
6818:1 8877:1 24563:1 19923:1
10888:1 24423:1 14149:1 18049:1
14106:1 11408:1 7061:1 22888:1
21805:1 20153:1 12852:1 791:1 1145:1 21613:1 90:1 24759:1 8664:1
28395:1 12745:1 12471:1 24459:1 13329:1 2174:1 25519:1 3186:1 10444:1 22384:1 6317:1
12471:1 28592:1 20958:1 3186:1 3092:1 10444:1
14581:1 9639:1 1369:1
28387:1 13641:1 19880:1 4847:1
28417:1 8037:1 26570:1 19404:1
1514:1 15802:1 12028:1 24180:1
10444:1 28716:1 26911:1
9632:1 19772:1 28021:1 23884:1
2956:1 18335:1 10763:1 12471:1 9187:1 14546:1 5378:1 15884:1
8324:1 17547:1 5835:1 4531:1 12443:1 10444:1 15011:1 3710:1 6267:1
12469:1 8197:1 20858:1 19320:1 21879:1
25600:1 9639:1 3484:1 28707:1 28377:1
2796:1 2174:1 12471:1 10014:1 7144:1 9096:1
7625:1 13754:1 13887:1 14896:1
15697:1 848:1 10828:1
16325:1 24576:1 4643:1 28506:1 16553:1
26770:1 17437:1 13926:1 27521:1
24499:1 18366:1 6396:1 18323:1
3894:1 27290:1 24301:3 23676:1 10444:1 24499:1 55:1 21349:1
19818:1 26451:1 26958:1 9418:1 15920:1 18896:1 10551:1
5127:1 15612:1 8857:1 15402:1 17846:1
12417:1 27080:1 26210:1 5449:1 10135:1 11408:1
6640:1 12170:1 16872:1 11106:1 25010:1 3864:1
8748:1 16050:1 13882:1 26119:1 13627:1
15417:1 12378:1 13721:1 922:1 11704:1 24180:1
1297:1 10997:1 12033:1 2525:1 20111:1
24499:1 27839:1 475:1
3186:1 6972:1 22275:1 8264:1 5449:1
2547:1 6400:1 7599:1 2579:1
8197:1 4789:1 21954:1 18569:1 17446:1 26874:1
1222:1 24499:1 4439:1 11861:1 1074:1
21186:1 12658:1 18388:1 27086:1 15432:1
10783:1 16554:1 26328:1 847:1
28461:1 4755:1 20165:1
14931:1 13833:1 7885:1
12140:1 448:1 17171:1
2111:1 6482:1 16013:1 23884:1
11022:2 24970:1 20162:1 11288:1 16015:1 220:1 20207:1
25187:1 1313:1 11146:1 20582:1 26213:1 16975:1
9855:1 10036:1 24459:1 2810:1 5383:1
17030:1 330:1 4032:1 10444:1 8710:1 14854:1
23452:1 922:1 14218:1 10758:1
12278:1 10314:1 2215:1 9288:1 10444:1 12726:1 17466:1 20912:1 12471:1 7642:1 27200:1 13092:1 12783:1
19539:1 10970:1 5449:1 24623:1 16390:1 13887:1
12471:1 23884:1 4689:1 13542:1 7079:1 10444:1 12596:1
18561:1 14547:1 15474:1 26832:1 21954:1 15235:1 6442:1 13641:1 3020:1
19850:1 26709:1 13882:1 9288:1
18496:1 13589:1 22175:1
18561:1 15697:1 6618:1 25334:1
26906:1 11703:1 14221:1 5499:1 8162:1 24499:1
16339:1 12443:1 12183:1 7861:1 8438:1
1814:1 23884:1 10406:1 17411:1
14122:1 18636:1 1616:1 6159:1 11041:1 24499:1
14526:1 15630:1 10875:1 28191:1 13887:1
111:1 2415:1 847:1 5498:1 20060:1 220:1
10317:1 17389:1 17848:1 7432:1 23884:1 5127:1 4854:1 14451:1 7120:1
19239:1 21547:1 17664:1
26464:1 16411:1 14892:1 28377:1 5948:1 1419:1 10761:1
23156:1 4065:1 11894:1 12237:1 25339:1 17171:1 3092:1 25559:1 24180:1
11022:1 5660:1 21482:1 24440:1 7987:1
828:1 14451:1 6832:1
19322:1 22503:1 28026:1 7215:1
6876:1 27080:1 27293:1 11969:1
8706:1 19004:1
5473:1 5567:1 24283:1 26098:1 5510:1
2741:1 23008:1 12637:1 26193:1
6674:1 10444:1 17508:1 25953:1 12232:1 24499:1 19200:1
27729:1 5836:1 13207:1 18550:1 141:1
18191:1 28621:1 6292:1 18876:1 8302:1 3569:1 8169:1
21547:1 2579:1 12683:1 17628:1
5449:1 22149:1 7207:1 19434:1 17270:1
15556:1 12022:1 4389:1 3578:1 3605:1
10444:1 3186:1 9352:1 8804:1 1907:1 26582:1 27521:1
23084:1 15714:1 2372:1 10828:1 23884:1
27729:1 3007:1 27352:1 24:1 21613:1 23705:1 9286:1
26963:1 7496:1 26189:1 10782:1 25010:1 9532:1 18935:1 15836:1
14221:1 28434:1 2011:1 18308:1 5726:1
4415:1 25903:1 25600:1 5658:1 4643:1 8712:1
10444:1 13530:1 21715:1 206:1
12395:1 22301:1
21390:1 21323:1 8557:1 1989:1 19564:1
20934:1 8906:1 24201:1 14221:1 15932:1
24880:1 12370:1 23778:1 21250:1
16374:1 14251:1 27977:1 20335:1 18569:1
21547:1 9639:1 2357:1 28211:1
19195:1 20209:1 27776:1 22676:1 27060:1
28027:1 1982:1 6395:1 25256:1 10143:1 3720:1 23778:1 22394:1
13724:1 8676:1 276:1 4454:1 21933:1
26457:1 4977:1 17762:1 27972:1 25010:1 4292:1 21298:1
22014:1 12545:1 248:1 20018:1 8953:1 5449:1 17777:1
17389:1 26431:1 10444:1 10684:1 912:1
20722:1 22484:1 24731:1
25774:1 4526:1 10444:1 13055:1
12119:1 8326:1 9532:1 28417:1 2473:1
14455:1 3186:1 22908:1 10373:1 17654:1 18029:1
25964:1 2810:1 10970:1 19815:1 18793:1 19813:1
20581:1 20728:1 8151:1 17835:1 5388:1
16554:1 12811:1 13848:1 11384:1 21610:1
21610:1 19256:1 28377:1 9187:1 25600:1 2075:1 15432:1 55:1 27086:1
13349:1 17177:1 10244:1 3475:1 26060:1 7786:1 6309:1
18191:1 20453:1 20387:1 6594:1 23705:1 12783:1
20819:1 13612:1 10495:1 11815:1 17834:1 13964:1 19838:1 24459:1 3582:1 26963:1
19332:1 24791:1 21591:1 26468:1 21954:1
14035:1 12471:1 4075:1 20902:1 3186:1 17862:1 5970:1 7335:1
26867:1 21713:1 1605:1 9352:1 25010:1 837:1
6291:1 25010:1 28676:1 16104:1 15802:1
25600:1 24288:1 16686:1 1272:1
563:1 16199:1 27249:1 12471:1 8675:1
5624:1 9006:1 19229:1 16712:1 1225:1 14351:1 8219:1 4731:1
12852:1 25474:1 3460:1 5920:1 4352:1 28718:1
3610:1 20188:1 4939:1 220:1 24731:1
27080:1 16475:1 9631:1 9298:1 13887:1 2305:1
27718:1 8449:1 14041:1 14455:1 14221:1 563:1 1848:1
6575:1 17876:1 6297:1 16163:1 20194:1 24499:1
28541:1 13887:1 55:1 6765:1 10444:1 21252:1 12783:1
27629:1 20736:1 9939:1 9166:1 14347:1 17410:1 6622:1
9333:1 10199:1 12033:1 13614:1 3525:1
26945:1 6371:1 16598:1 10444:1 6740:1 9301:1
22075:1 25600:1 14099:1 21613:1 8219:1 21812:1
6093:1 10444:1 3925:1 24271:1
3168:1 14792:1 9928:1 19992:1 8804:1 10828:1
17370:1 19539:1 23418:1 13887:1
20162:1 12560:1 5703:1 5300:1
22607:1 16598:1 13217:1 3051:1 2030:1 219:1 619:1
3027:1 10098:1 26845:1 23635:1 23118:1
2796:1 25387:1 15836:1 3186:1 23129:1 10444:1 19001:1
14627:1 9009:1 3484:1 14926:1 7195:1 25674:1
22847:1 13012:1 15589:1 19070:1 2945:1 17876:1 10444:1
19322:1 4443:1 4390:1 2810:1 26165:1 563:1 19653:1
2257:1 12471:1 26709:1 24459:1 24391:1 9894:1 5152:1
106:1 18116:1 220:1 20393:1 5378:1
3168:1 19566:1 24572:1 11729:1 13396:1 2218:1
26786:1 22609:1 26210:1 22791:1 23705:1 2218:1
12636:1 12954:1 11677:1 17666:1
5877:1 2143:1 11022:1 28377:1 648:1 8133:1
12852:1 10303:1 26850:1 18968:1 4575:1 4643:1 9836:1
17917:1 18767:1 21954:1 24201:1 4847:1
21610:1 27056:1 9197:1 28106:1 25600:1 23519:1 10954:1
22819:1 16110:1 6586:1 20310:1 26850:1
24422:1 14926:1 4195:1
14728:1 565:1 847:1 20812:1 11216:1 9829:1
12033:1 21890:1 2329:1 18204:1 15506:1
18666:1 718:1 17209:1 297:1 13926:1 3191:1 3356:1
17110:1 20540:1 23553:1 17197:1 11488:1
23251:1 16183:1 10683:1 14256:1 22960:1
28387:1 19012:1 18467:1 15432:1 23778:1 25256:1 21499:1 23350:1 27086:1
12384:1 8947:1 25465:1 26210:1 19772:1 10444:1 16104:1 25640:1
19566:1 14450:1 15920:1 2137:1 18948:1
17689:1 13472:1 15540:1 1481:1 25059:1 6860:1
3361:1 2255:1 25483:1 2579:1 5711:1 7348:1
23360:1 939:1 21772:1 24056:1 25234:1 10444:1 16711:1
1222:1 23374:1 6138:1 6846:1 4702:1 25182:1 27031:1
7916:1 12445:1 18889:1
5970:1 13655:1 24499:1 18049:1 6455:1 3722:1 9639:1 8568:1 7439:1 3827:1
20849:1 12343:1 5627:1 25926:1 18434:1 5644:1
3990:1 10613:1 14310:1 24003:1 10444:1 17317:1
25600:1 24288:1 14665:1 28707:1
12471:1 7608:1 14076:1 26156:1 16863:1 13553:1 7748:1
4352:1 28011:1 25964:1 4203:1 14310:1
26948:1 15602:1 1074:1 16758:1 4015:1
17290:1 22791:1 2011:1 23884:1 22609:1
7286:1 24615:1 14884:1 363:1 6119:1 17649:1
1236:1 22052:1 4847:1 11104:1 19880:1 17664:1
28621:1 27476:1 14921:1 1297:1 10521:1 7972:1 3426:1 13926:1 7664:1 1287:1
12969:1 14451:1 26568:1 20065:1 1118:1 9301:1
21390:1 3864:1 28522:1 813:1
3699:1 8292:1 12002:1 20518:1 27733:1 24499:1
424:1 6876:1 18636:1 21224:1 24499:1 16110:1 6740:1
10981:1 2332:1 27360:1
21591:1 6418:1
18557:1 20912:1 27056:1 2121:1 4847:1 5948:1 23512:1 12471:1 24982:1 18484:1
3186:1 21147:1 12471:1 9225:1 11248:1 19835:1 22567:1 21015:1
23592:1 9532:1 13207:1 5790:1 13639:1
17946:1 9880:1 8582:1 10569:1 10277:1 25547:1
6455:1 17664:1 13664:1 21396:1
4415:1 20377:1 23884:1 27135:1 848:1 16598:1 1040:1
26786:1 11106:1 4149:1 4764:1
21610:1 5693:1 6875:1 24142:1 6186:1 23360:1
15338:1 22717:1 15697:1 19153:1 24499:1 26771:1 11408:1
20006:1 1815:1 25440:1 24499:1 28419:1 24854:1
5790:1 24062:1 16236:1 10569:1 27550:1 22567:1
4944:1 25500:1 5009:1 20912:1 24024:1 10444:1
20378:1 3027:1 12471:1 11022:1 20242:1 1864:1 24499:1 4897:1 2316:1 3837:1
26786:1 2722:1 813:1 18102:1 10444:1 23046:1
13612:1 6235:1 23635:1
5678:1 17648:1 769:1 2062:1 19527:1
11413:1 2210:1 12471:1 11836:1 25774:1 18732:1 10444:1 27230:1
9904:1 18511:1 28722:1 26945:1 5322:1
25600:1 513:1 26827:1 14386:1 11104:1
13612:1 12471:1 26328:1 11352:1 3186:1 7348:1 6309:1 26823:1
7948:1 23353:1
21539:1 10444:1 19855:1
26319:1 8141:1 17876:1 6098:1 25128:1
20664:1 6705:1 19902:1 6163:1 10444:1 28193:1 1287:1
11785:1 5077:1 12568:1 24499:1 14792:1
7756:1 11794:1 5928:1 1375:1 16879:1
8589:1 258:1 4813:1 3020:1 17698:1
21879:1 26592:1 25963:1 7246:1 25600:1 22791:1 22609:1
8890:1 5449:1 22150:1 28764:1
10444:1 26098:1 581:1
8078:1 27012:1 15792:1 17677:1 1411:1 560:1 12783:1
6792:1 27135:1 25945:1 21297:1 28417:1 1287:1
15575:1 13887:1 22078:1
1185:1 27063:1 20555:1 17587:1
962:1 7773:1 11026:1 11215:1 10444:1 21291:1
12745:1 847:1 3572:1 26273:1 5383:1
28217:1 15253:1 1976:1 2776:1 14303:1 6269:1
4661:1 13:1 3198:1 25945:1
25600:1 22139:1 17664:1 21547:1
404:1 17616:1 8133:1 5635:1 20010:1 20148:1
18862:1 10970:1 15425:1 3811:1 25344:1
11596:1 22288:1 5732:1 5449:1 13752:1 6972:1
25583:1 14662:1 475:1 27804:1
22810:1 8215:1 8133:1 13843:1 5952:1 12471:1 8639:1 5129:1 25369:1
16700:1 24459:1 1040:1 13329:1 28643:1 12020:1 12471:1 14022:1 13843:1
21642:1 11619:1 16983:1 24499:1 28697:1 17753:1
6284:1 12256:1 1248:1 21688:1 12474:1
15802:1 756:1
21274:1 13037:1 15594:1 22931:1
8002:1 13887:1 7121:1 11060:1 25334:1
15338:1 12932:1 22234:1 6740:1 3420:1 16671:1 11408:1 24499:1 1587:1 23360:1 7754:1
13744:1 12784:1 13277:1 2642:1
15868:1 8859:1 26709:1 11691:1 9301:1
10444:1 206:1 16758:1 26958:1 17664:1
18153:1 20461:1 22312:1 13614:1 22791:1 8639:1 3045:1 22609:1
5790:1 5948:1 18968:1 21297:1 13284:1 10954:1
3186:1 11794:1 9453:1 12033:1 5327:1 449:1 24791:1 12471:1 27272:1 8741:1
26945:1 27446:1 939:1 6307:1 20632:1 24791:1 26518:1 9049:1
6159:1 27077:1 1074:1 10277:1 11028:1
5449:1 25963:1 297:1 28063:1 7130:1 10444:1
27650:1 12471:1 16686:1 7642:1 25600:1 13944:1 21613:1 13843:1
13367:1 3361:1 3191:1 5815:1 13926:1 66:1 8675:1
26165:1 7411:1 1287:1 9301:1
20021:1 2218:1 20343:1 4142:1 10772:1
18220:1 10444:1 13584:1
13223:1 26998:1 3105:1 19603:1 17676:1 4197:1
1236:1 11619:1
2648:1 8426:1 4150:1 26620:1 5970:1
4828:1 21881:1
11275:1 9418:1 7220:1 20634:1 17126:1 13887:1
788:1 10199:1 10303:1 11889:1 7711:1 9894:1 24056:1 24731:1 16711:1
12177:1 10433:1 18190:1
348:1 26688:1 3186:1 22939:1 4016:1 25145:1 20687:1
11871:1 9215:1 24499:1 5516:1
5448:1 28346:1 2446:1 15697:1 6186:1 6972:1 9551:1
4444:1 10444:1 13207:1 7107:1
5678:1 139:1 16028:1 23209:1
5790:1 9595:1 15371:1 9817:1
5608:1 5383:1 4203:1 27273:1 13641:1
9532:1 11090:1 16074:1 6501:1 8510:1
10521:1 10849:1 17346:1 7638:1
4443:1 634:1 19653:1 13553:1 28314:1
20185:1 24499:1 22748:1 20859:1 16013:1
28586:1 20992:1 12471:1 26793:1 8930:1 22076:1
9009:1 9298:1 17095:1 21050:1
4415:1 1040:1 9362:1 22119:1 13276:1 2541:1 3151:1
28484:1 2418:1 10105:1 26735:1 7876:1
21304:1 24186:1 12471:1 2853:1 4859:1 19211:1
5449:1 2409:1 11930:1 20772:1 16224:1
1297:1 12638:1 22567:1 9978:1 21356:1 2062:1 10105:1
8748:1 13504:1 23069:1 22903:1 9346:1
26963:1 12471:1 25770:1 2599:1 12783:1 13843:1
5714:1 5437:1 24653:1 2075:1 7613:1 55:1 9551:1
21881:1 6086:1
3186:1 22288:1 18150:1 1996:1 26963:1
28027:1 14547:1 12193:1 3186:1 27727:1 12471:1 15880:1 8995:1
3589:1 3720:1
16820:1 23163:1 27521:1 28053:1 20447:1
28281:1 11160:1 6718:1 13317:1 24499:1 19277:1 27054:1
10860:1 7625:1 2541:1
18561:1 6589:1 7585:1 21464:1 1637:1
4128:1 9056:1 3589:1 2209:1 9639:1 15469:1 15884:1
25387:1 26786:1 18197:1 10444:1 15818:1
20160:1 10444:1 18569:1
24499:1 6292:1 5164:1 10981:1 21464:1 13926:1 23418:1
12178:1 17926:1 18308:1
25600:1 55:1 27589:1 20836:1
17498:1 768:1 18366:1 448:1 28454:1 15622:1
10277:1 26273:1 17727:1 7220:1 5952:1 18244:1
307:1 25747:1 363:1 13361:1 20436:1 27272:1 13452:1
26963:1 21683:1 19872:1 2121:1 28332:1 10354:1
5247:1 3589:1
270:1 17947:1 20605:1 27660:1
18239:1 16239:1 5635:1 106:1
5991:1 4369:1 19818:1
21484:1 14792:1 23246:1 13750:1 13196:1
24339:1 2329:1
791:1 12471:1 9855:1 22430:1 28504:1 244:1 13843:1
2143:1 12471:1 21547:1 25600:1 19518:1 23519:1 6455:1
5149:1 2329:1 5449:1 9532:1 2029:1 13828:1
28597:1 24344:1 15403:1 28266:1
23267:1 24499:1 27394:1 6396:1
127:1 19253:1 16988:1 19412:1
22553:1 11596:1 13176:1 17615:1 4801:1 18381:1 26328:1
177:1 20392:1 12443:1 23418:1 20060:1 27921:1
20214:1 18306:1 4502:1 4678:1 6309:1
26285:1 11022:1
20490:1 18308:1 20814:1 24392:1 1258:1 22622:1
17196:1 3990:1 23015:1 20806:1 2011:1 23360:1
20344:1 12605:1 6326:1
13089:1 20485:1 12471:1 19924:1 20271:1 4875:1 601:1 13843:1
21832:1 4709:1 26604:1 10587:1 19959:1 24834:1 22638:1 220:1 2562:1
19539:1 20707:1 13926:1 26098:1 8292:1
25339:1 139:1 11349:1 24731:1 17126:1 13887:1
16556:1 13926:1 5867:1 9133:1 2810:1 6459:1 19180:1 24631:1
7079:1 7625:1 10199:1 6455:1 21787:1 15945:1
21591:1 56:1 12471:1 28772:1 4129:1 3186:1
21274:1 2054:1 9347:1 20770:1 13926:1 25010:1 21881:1
18552:1 9421:1 558:1 26845:1 21298:1
22284:1 2847:1 27336:1 24073:1 18366:1 1074:1 8691:1 648:1
13887:1 4097:1 27709:1 24768:1 4477:1 21725:1
16713:1 105:1 10444:1 5011:1 23453:1
17541:1 6149:1 28499:1 12549:1
7434:1 11367:1 14896:1 26210:1 13244:1
11041:1 18715:1 24201:1
16620:1 11462:1 28454:1 17317:1 6789:1 12471:1 10444:1 24271:1 26781:1
19203:1 20860:1 105:1 1297:1 11526:1
10600:1 27729:1 5913:1 6292:1 20826:1 4808:1 5835:1
16239:1 12031:1 12954:1 16345:1
28619:1 16542:1 21720:1 13927:1
25600:1 1074:1 3328:1 21613:1 17339:1
28387:1 13641:1 16553:1 4847:1
18322:1 26963:1 563:1 7468:1 7577:1 10444:1 1623:1
26064:1 11090:1 26328:1 6573:1 2372:1 24499:1 26518:1
28027:1 14645:1 23340:1 19122:1 8133:1 16200:1 24499:1 10140:1
8151:1 12471:1 5423:1 5546:1 25600:1 20728:1 847:1 16360:1 13843:1
11728:1 25600:1 27855:1 55:1
4441:1 21750:1 1313:1 10105:1 9301:1
21002:1 718:1 22499:1 4203:1 771:1 10444:1 9836:1
18667:1 11160:1 12954:1 11529:1 9532:1 11969:1
26:1 20806:1 28417:1 24063:1 23360:1
3616:1 21436:1 6093:1 9532:1 28811:1 13887:1
24838:1 1619:1 16923:1 6396:1
18322:1 16127:1 21436:1 22662:1 10906:1 10642:1 27352:1
25262:1 23890:1 9165:1 27447:1 14310:1
26:1 294:1 4391:1 12443:1 25334:1 23296:1
14371:1 9050:1 23834:1 23884:1
26461:1 6698:1 20820:1 10444:1 19902:1
19745:1 3027:1 2419:1 28676:1 4430:1 7196:1
21772:1 24499:1 12718:1 3268:1 12002:1
10486:1 6130:1 14035:1 12471:1 12783:1 20912:1 3814:1 10373:1 20841:1
18009:1 23340:1 25381:1 13970:1
19612:1 19412:1 27184:1 26098:1
5731:1 25600:1 17426:1 21613:1
12471:1 20194:1 14153:1 3186:1 7079:1 6740:1 15465:1
25449:1 5835:1 10444:1 16923:1 20242:1
1244:1 11802:1 17317:1 813:1
27650:1 25600:1 1797:1 26478:1 27230:1
4149:1 25689:1 28191:1 10615:1 23069:1 20807:1
28011:1 10828:1 26958:1 14267:1
14011:1 3361:1 12471:1 23094:1 15842:1
26096:1 28510:1 21671:1 4026:1
769:1 22585:1 2299:1 8449:1 9532:1 10443:1 5690:1 27521:1
9446:1 25094:1 19341:1 13615:1 14310:1 17171:1
4807:1 2642:1 18569:1 9532:1 18388:1 24180:1
27650:1 20168:1 26987:1 10444:1 18843:1
8059:1 22499:1 24724:1 24784:1 15730:1 24499:1 27855:1 16755:1
28541:1 7067:1 24344:1 10444:1 2062:1 28301:1
20162:1 15488:1 3484:1 1864:1
10532:1 13887:1 18155:1
14437:1 1207:1 20010:1 6292:1
7578:1 12212:1 9639:1 13638:1
3027:1 28434:1 9855:1 21613:1 25600:1 19037:1
5247:1 3589:1
23084:1 6050:1 21390:1 23884:1 26958:1
10055:1 11022:1 27344:1 15616:1 13926:1 16015:1 22245:1
28410:1 25010:1 12471:1 26229:1 5334:1
27056:1 25474:1 5920:1 13244:1 6186:1 13196:1
18238:1 28387:1 3139:1 15222:1
10444:1 14972:1 18550:1 5836:1
1992:1 27197:1 20406:1 2121:1 847:1 24499:1 14502:1 6224:1
25600:1 28387:1 20194:1 8829:1
2555:1 6000:1
2724:1 21297:1 12827:1 23602:1
15356:1 16802:1 4116:1 13032:1 27200:1 1587:1 15819:1
18720:1 28618:1 24919:1
12471:1 26165:1 23973:1 28417:1 9391:1 19277:1 13843:1
22021:1 21879:1 5668:1
1236:1 23203:1 2075:1 9639:1 20610:1 3017:1
16833:1 17664:1 19651:1 26002:1 8505:1 13196:1
3027:1 24609:1 27837:1 13750:1 25600:1 12471:1 13196:1 13843:1
768:1 7625:1 21319:1 10828:1 25524:1
13243:1 2810:1 8215:1 28365:1 9165:1 1763:1
928:1 2430:1 13325:1 11989:1
12532:1 23977:1 10569:1 15697:1 10828:1 14990:1
26:1 4247:1 25537:1 23890:1 10444:1 13887:1
4912:1 21760:1 12471:1 7168:1 27352:1 14224:1
12384:1 1074:1 9342:1 21250:1 16187:1 7861:1 9288:1
9265:1 5082:1 19527:1 16834:1 25600:1 5720:1
26992:1 3328:1
20912:1 16330:1 12783:1 16484:1 4538:1 1565:1 9836:1 12471:1 5653:1 9814:1
9639:1 10444:1 13750:1 21812:1
5695:1 27447:1 12852:1 1775:1 2075:1 24773:1
7032:1 25010:1 1743:1 177:1 20672:1 2579:1 6379:1 10444:1
8336:1 13113:1 23884:1 15474:1 13641:1
19913:1 7032:1 220:1 21402:1 18763:1
1155:1 9882:1 11022:1 21499:1 5877:1 5740:1
15509:1 13367:1 28174:1 10763:1 8197:1
17998:1 14194:1 11343:1 18364:1 1717:1
3894:1 7412:1 3437:1 3186:1 20806:1 10444:1 27272:1 23360:1
26843:1 7257:1 9660:1 26604:1 24499:1 15368:1
21805:1 22234:1 20194:1 15373:1 5581:1 13276:1 9594:1
25600:1 27211:1 23519:1 6455:1
8551:1 20819:1 25926:1 12726:1
6093:1 1685:1 13887:1 13186:1
10817:1 14645:1 11954:1 9298:1 13204:1
21077:1 27352:1 22075:1 3794:1 7759:1
19329:1 19348:1 11104:1 14221:1 25600:1 1074:1 18366:1
768:1 12471:1 24271:1 19207:1
16339:1 8812:1 14684:1 12471:1 21482:1 17848:1 9465:1 24499:1 5515:1 220:1
11784:1 6093:1 19262:1 18068:1 18153:1
26604:1 24570:1 13207:1 7348:1
6274:1 9595:1 3466:1 1829:1
1860:1 4415:1 16557:1 3572:1 14645:1 28217:1 21613:1 18366:1
833:1 27301:1 15589:1
25790:1 12212:1 25256:1 9133:1 25010:1 13887:1 3903:1
15868:1 12471:1 3887:1 24249:1 13843:1 4875:1 26893:1 2584:1 6292:1 10105:1 24834:1
25845:1 11721:1 19518:1 2328:1 9898:1 2044:1
27700:1 2054:1 14399:1 13055:1 8292:1 646:1 21784:1 19659:1 9639:1 12471:1 2316:1
18552:1 14191:1 5317:1 1616:1 9461:1 20806:1 24499:1
27742:1 4807:1 10303:1 11384:1 7348:1
20239:1 13504:1 7694:1 25010:1 11895:1 10105:1 850:1
13655:1 13276:1 472:1 10444:1 26447:1 14325:1
12031:1 17415:1 10783:1 8964:1 7411:1 27000:1 21499:1
22277:1 25196:1 21378:1 10444:1
5488:1 6876:1 105:1 17294:1
21784:1 12932:1 18170:1 17444:1 21408:1 9532:1
17458:1 2912:1 23407:1 13452:1 9287:1 11406:1 15084:1
14903:1 16689:1 21613:1 21831:1 14502:1 10105:1 26653:1
13688:1 28027:1 17710:1 2197:1 3864:1 847:1 813:1 12471:1 3020:1
22119:1 12969:1 21300:1 12954:1
15697:1 23519:1 11022:1 8943:1 4847:1
3253:1 3040:1 769:1 1297:1 23517:1
24301:1 24791:1 1297:1 19600:1 14739:1 11407:1 27086:1 11792:1 12471:2 11022:1 15432:1 24499:1 7397:1 220:1
28622:1 11819:1 1297:1 5464:1 23902:1
18787:1 13301:1 14310:1 2075:1 9288:1 9834:1 8675:1
6992:1 2975:1 24476:1 7615:1 23069:1
25423:1 5069:1 18308:1 24972:1
4649:1 18563:1 25589:1 4933:1 5644:1 11022:1
26451:1 2128:1 14896:1
14339:1 21297:1 24499:1 11619:1
17730:1 5836:1 10444:1 23209:1 13348:1 22567:1
11939:1 2331:1 3569:1 21671:1 309:1
13655:1 13098:1 1297:1 21984:1 8792:1 25010:1
3191:1 8361:1 22119:1 24636:1 560:1 16821:1
17487:1 17804:1 15871:1
26685:1 6138:1 23689:1 18170:1 22298:1 11106:1 2011:1 13887:1
26786:1 5678:1 23884:1 11230:1 5134:1 10444:1 4199:1
21613:1 9420:1 14089:1 28377:1 23512:1
27476:1 1297:1 25256:1 24773:1 28417:1 10444:1 13887:1
18608:1 28387:1 28522:1 15432:1 18862:1 11104:1 20728:1 5017:1 27086:1
24529:1 9821:1 23191:1 12334:1 2121:1
10673:1 13529:1 8890:1 5449:1 25439:1 20836:1
12384:1 8906:1 10329:1 9989:1 19772:1 11445:1
5798:1 12560:1 22746:1 25225:1 8510:1
26568:1 5903:1 891:1 20432:1
20158:1 16740:1 1297:1 2642:1 10600:1 19018:1 10444:1 25044:1
28027:1 4944:1 28106:1 24193:1 18306:1 23081:1 25256:1 25903:1
8877:1 19256:1 2579:1 6111:1 17666:1 15836:1
20982:1 6186:1 5164:1 12964:1 3720:1
11386:1 9900:1 13512:1 21933:1 21713:1
19161:1 14415:1 7625:1 6619:1 11997:1
26861:1 4893:1 19203:1 25483:1 8857:1 10742:1
188:1 24413:1 14809:1 28186:1 18244:1 6038:1
23976:1 2105:1 12471:1 7999:1 23837:1 5499:1 14089:1
27747:1 6186:1 19440:1 13741:1 15685:1
686:1 12471:1 20841:1 23837:1 9187:1 11836:1 12152:1
6301:1 17275:1
10444:1 23269:1 2409:1 4500:1
26165:1 12471:1 24728:1 13843:1 16830:1 28676:1 19277:1 1980:1
6818:1 27650:1 1074:1 25434:1 26499:1 21983:1
12033:1 23884:1 4977:1 18306:1 16621:1 21390:1 3020:1
16871:1 6923:1 4150:1 4726:1 25010:1 21300:1 2579:1
1326:1 28505:1 16834:1 13557:1 11118:1 10826:1
5626:1 14218:1 24913:1 9894:1 9187:1 12471:1 24664:1 27711:1 26136:1 3268:1
3535:1 21539:1 26189:1 11106:1 14327:1 11733:1
23744:1 10849:1 17193:1 11104:1 10002:1 21891:1 10742:1 25334:1
10970:1 26210:1 11828:1
13685:1 127:1 1297:1 20807:1 16988:1 4266:1
11633:1 6606:1 6740:1 7246:1
10036:1 28021:1 27272:1 16879:1
18835:1 26015:1 2260:1 15084:1
4362:1 19475:1 9444:1 4847:1
10901:1 23013:1 20912:1 16554:1 1336:1 2579:1 12471:1 6396:1 25536:1
5486:1 24348:1 2954:1 27335:1
17842:1 26958:1 26098:1
7439:1 12827:1 5278:1 4848:1 4536:1 24499:1 15371:1 13887:1 10433:1
19513:1 19495:1 9639:1 809:1 813:1
12148:1 5678:1 13141:1 3589:1 21032:1 1134:1 24499:1 25817:1 27420:1
5473:1 19818:1 28597:1 13396:1 3186:1
25339:1 12471:1 4900:1 6093:1 10444:1 3058:1 19126:1 1907:1 11501:1 27521:1
12022:1 6422:1 1587:1 13361:1 9166:1
28434:1 718:1 8002:1 8197:1
1776:1 9620:1 19884:1 26709:1 17237:1 13313:1 28188:1
18163:1 6740:1 847:1 21547:1 1873:1 19826:1 13887:1
16417:1 1616:1 28377:1 1499:1 21991:1 24499:1 18365:1 17237:1
25600:1 21250:1 16686:1 1752:1
28027:1 5790:1 27700:1 19818:1 14351:1 2197:1 16221:1 7348:1
4443:1 5115:1 18135:1 17947:1 9406:1 11799:1
20912:1 12471:1 12783:1 20271:1 24551:1 10444:1 27814:1 10951:1
18823:1 18608:1 11140:1 15432:1 388:1 10444:1 5322:1 27086:1
1287:1 18095:1 6348:1 13693:1 15836:1
22172:1 3806:1 14270:1 5471:1 18691:1
2174:1 24050:1 1305:1 23037:1 24499:2 11953:1
26319:1 23092:1 16923:1 8741:1
16239:1 13367:1 6789:1 28040:1 3248:1 12865:1
3249:1 686:1 24236:1 5253:1 12651:1 4415:1 24499:1 15402:1
10166:1 14022:1 16141:1
16239:1 17946:1 4111:1 4477:1 28643:1 8804:1 1619:1
9933:1 24201:1 8133:1 16689:1 25600:1 28377:1 24459:1
25324:1 12471:1 15920:1 23685:1 24179:1 3186:1 10444:1 3720:1
13721:1 10444:1 14218:1 5140:1 24289:1 3186:1 24838:1 7196:1 19751:1
16479:1 23358:1 18574:1 20094:1 24499:1 10761:1 2316:1 23512:1
28602:1 3593:1 26165:1 813:1 15260:1 10501:1 1287:1
13255:1 8930:1 813:1 3713:1 1287:1 3045:1 6228:1
17150:1 14548:1 24913:1 16080:1 13926:1 3191:1 5988:1
7195:1 17415:1 9532:1 8578:1 2075:1
17881:1 26963:1 26363:1 14221:1 3569:1 23291:1 22960:1
11951:1 19902:1 24731:1 5449:1 20204:1 27928:1 2062:1
19019:1 9896:1 21613:1 3245:1 24499:1 27589:1
11784:1 25387:1 5928:1 3864:1 3186:1 17781:1
7432:1 9287:1 6093:1 22050:1 7160:1 7097:1
3280:1 10424:1 9532:1 10444:1 7348:1
3411:1 26709:1 19165:1 24499:1 10444:1 2716:1
2956:1 9188:1 12471:1 5867:1 8272:1 4409:1 25016:1
14343:1 21274:1 13655:1 24769:1 4726:1 18191:1 22987:1 12002:1 17317:1
21407:1 12259:1
12384:1 10036:1 24712:1 21613:1 9639:1 12471:1
28621:1 20328:1 8158:1 6396:1 9287:1
26568:1 14409:1 11619:1 23837:1 4636:1 1723:1 7748:1
9924:1 5457:1 19924:1
20162:1 10856:1 6023:1 9371:1 15098:1 28188:1 10444:1 17449:1
5764:1 21547:1 9288:1 13196:1 26850:1
18685:1 20992:1 1297:1 24173:1 10569:1 4477:1
27521:1 12471:1 17172:1 13843:1 4875:1 25176:1 6230:1 20773:1
20335:1 7411:1 9009:1 11704:1 5829:1
16374:1 28122:1
21368:1 19548:1 17664:1 1118:1
19651:1 24712:1 16221:1 9595:1 9639:1 7348:1
2555:1 25010:1 9391:1 2810:1 10550:1
10444:1 54:1 9347:1 13693:1 24960:1
20912:1 24615:1 10444:1 3186:1 2409:1 17825:1
14041:1 16554:1 26328:1 14081:1 19410:1
24046:1 286:1 24394:1 6159:1 5930:1 21787:1 24499:1
13744:1 3281:1 7342:1 24722:1
24499:1 12902:1 898:1 13585:1 25600:1 24344:1 27000:1 4129:1 23902:1 10951:1
19671:1 21338:1 7538:1 1118:1 11619:1
4964:1 16427:1 2197:1 2401:1 23901:1 20912:1 12471:1 13641:1
4128:1 24236:1 3328:1 4939:1 28325:1 26083:1 13501:1
19651:1 13655:1 19353:1 5391:1 17449:1
26457:1 12471:1 206:1 7669:1 3545:1 6951:1 6396:1
22656:1 11022:1 26516:1 9551:1 220:1 9891:1
10444:1 28011:1 24329:1 12784:1 15031:1
15448:1 19288:1 21848:1 27675:1 20795:1 6559:1 2716:1
20490:1 28395:1 20413:1 7508:1 9356:1
26786:1 2329:1 15112:1 10199:1 10444:1 16013:1
9532:1 10550:1 10023:1 6004:1
28106:1 21613:1 9639:1 8504:1 27216:1
19353:1 11575:1 16055:1 4142:1 11961:1
924:1 6302:1 16481:1 14854:1
12384:1 21700:1 5094:1 3484:1 18308:1 14134:1 847:1 6291:1 25547:1
14946:1 17810:1 27080:1 6186:1
10833:1 22721:1 16587:1
2700:1 14399:1 9856:1 14306:1
22847:1 6376:1 8903:1 2833:1
26604:1 14351:1 3092:1 23342:1 11621:1
27080:1 17317:1 4977:1 5449:1 7434:1 3186:1 13887:1
6818:1 3027:1 28377:1 6975:1 14339:1 13557:1 21679:1 220:1
14448:1 4017:1 25334:1 1287:1
18031:1 26508:1 3822:1 847:1
22530:1 5467:1 3007:1 8582:1 26805:1 6703:1 38:1
10701:1 3569:1 12334:1 24108:1
26134:1 9992:1 10410:1 24289:1
26963:1 23884:1 26328:1 19310:1 4985:1 9909:1 12152:1 9301:1
27739:1 2810:1 26156:1 17294:1 25334:1 1763:1
15417:1 348:1 7728:1 25926:1 9165:1 2370:1
24572:1 14351:1 4962:1 6004:1
17809:1 23705:1 18015:1 17126:1 18190:1
17428:1 14221:1 20529:1 10277:1 16770:1
16339:1 1297:1 22430:1 12443:1 18426:1 1538:1 18366:1
4664:1 15211:1 16452:1 11215:1 23778:1
9443:1 24731:1 23078:1 10444:1 21315:1 23046:1
1145:1 8926:1 11221:1 22305:1
19322:1 1280:1 28387:1 20987:1
768:1 26552:1 1245:1 24499:1 448:1 15622:1
4411:1 19506:1 14424:1 2443:1 5449:1 769:1 16013:1 28356:1
8275:1 11951:1 12471:1 15741:1 10331:1 24768:1 3186:1
26604:1 26867:1 19902:1 24180:1
13167:1 11794:1 22595:1 10444:1 850:1
22871:1 21300:1 25063:1 23350:1
17498:1 51:1 24062:1 22567:1 10856:1
5638:1 25010:1 6395:1 2062:1 25945:1
20355:1 756:1
1514:1 23608:1 22848:1 21613:1 12028:1 14654:1
24065:1 20912:1 12471:1 5948:1 26809:1 14089:1
13393:1 26448:1 15132:1 14458:1 24499:1 26518:1 2579:1
22118:1 13655:1 4253:1 20194:1 5391:1 17926:1 55:1 9004:1 13887:1
18366:1 11719:1 23890:1 8857:1
18557:1 9532:1 11023:1 13693:1 5835:1
4622:1 10444:1 16009:1
18114:1 18323:1 18366:1 12807:1 5176:1
3058:1 7521:1 23333:1
10329:1 13530:1 3475:1 21609:1 6455:1 15371:1
26963:1 18351:1 848:1 21539:1 3385:1
527:1 20511:1 24122:1 17113:1
16252:1 18833:1 1297:1 8643:1 2541:1 15011:1 10444:1 448:1 26866:1
105:1 17073:2 2197:1
7667:1 5286:1 16015:1 363:1 95:1
23374:1 4916:1 18412:1 7030:1 20816:1 12152:1
7439:1 24499:1 22125:1 1074:1 10105:1 256:1
4664:1 20795:1 19772:1 28387:1 28592:1
9517:1 7412:1 11022:1 17425:1 24499:1 10444:1
19566:1 2810:1 563:1 18793:1 28676:1 16553:1 25267:1 7348:1
1623:1 10444:1 20010:1 24745:1 9301:1
15174:1 7411:1 1297:1 4584:1 23360:1
8916:1 24563:1 23890:1
14581:1 8256:1 21812:1 21484:1 20502:1
769:1 18665:1 26958:1 24806:1 17676:1 25010:1 15031:1
12471:1 9418:1 19195:1 6186:1 14430:1 13887:1 9301:1
27744:1 9224:1 14081:1 4273:1
2956:1 18261:1 23945:1 4848:1 25774:1 18968:1 13926:1
20912:1 21591:1 16200:1 12471:1 20545:1
16534:1 8020:1 56:1 1297:1 24791:1 16711:1 12019:1
2810:1 23608:1 11891:1 22761:1 16080:1 11348:1 10444:1 13887:1
12080:1 12852:1 9133:1 13052:1
21547:1 19312:1 13196:1 18446:1 3051:1
8059:1 1976:1 9923:1 7798:1 6875:1 22746:1 220:1 16763:1
3027:1 19256:1 17876:1
14303:1 25301:1 19318:1 6008:1 24572:1 24499:1 10055:1
4691:1 9532:1 7348:1
7348:1 21831:1 20070:1 25923:1
25312:1 16707:1 20830:1 9581:1
13186:1 28627:1 4307:1 10036:1 25890:1 5383:1
28217:1 13276:1 14838:1 129:1
996:1 17305:1 13032:1 7411:1 26518:1 2062:1 1287:1
28281:1 15868:1 16438:1 22595:1 1297:1 20242:1 26306:1 27015:1 8020:1
15187:1 22746:1 21991:1 25559:1 3020:1
28625:1 12212:1 26958:1 6186:1 26960:1 19276:1
4774:1 22737:1
14409:1 10444:1 20629:1
12237:1 27311:1 5391:1 22652:1 18150:1 17171:1
3027:1 26963:1 27837:1 13055:1 7795:1 28654:1 1755:1
3350:1 25194:1 1681:1 3457:1 28417:1 2011:1 95:1 27583:1 22797:1
6396:1 13529:1 8292:1 19539:1 10536:1 22746:1 9214:1 22736:1
13507:1 15356:1 16431:1 16713:1 17043:1 26328:1
25172:1 7585:1 12033:1 23360:1 28341:1
21539:1 1040:1 3051:1 28740:1 9532:1 1696:1 25365:1
14903:1 19902:1 23360:1 6450:1 23778:1 6038:1
34:1 26867:1 14220:1 21927:1
19442:1 11283:1 27809:1
18191:1 27468:1 1225:1 17932:1 25010:1 12235:1
18692:1 20593:1 1040:1 16080:1
3027:1 4998:1 3334:1 25369:1
19352:1 27855:1 16834:1 16417:1 28030:1 19361:1
3027:1 12852:1 8667:1 13750:1 14896:1 25600:1 7861:1
5209:1 26963:1 5024:1 9313:1 24572:1 8804:1 22855:1 471:1
26786:1 26748:1 24459:1 25926:1 28395:1 22581:1 21300:1 3713:1
4415:1 27476:1 1297:1 13430:1 24335:1 14550:1 21390:1 23884:1
12212:1 3328:1 26958:1 10444:1 16367:1 13926:1 4361:1
8890:1 15356:1 18308:1 10105:1 2236:1
5350:1 6723:1 12783:1 27809:1
28027:1 2314:1 791:1 16417:1
22318:1 20912:1 12783:1 23282:1
28217:1 10444:1 21999:1 27812:1 23884:1
5148:1 26823:1 11352:1 25234:1 2062:1 6025:1 16013:1
27650:1 8917:1 27481:1 22480:1 27759:1 16553:1 6871:1
12443:1 12852:1 809:1 21265:1 9271:1
21613:1 55:1 1743:1 28377:1
24231:1 19329:1 220:1 23509:1 18084:1 23705:1 14896:1 12471:1 19932:1
7107:1 22895:1 25392:1 3990:1 14016:1
8748:1 3902:1 11269:1 1738:1 3051:1 7102:1
19488:1 12783:1 24392:1 13300:1 23778:1
26165:1 11799:1 26709:1 13614:1 12371:1
26328:1 7040:1 18366:1 13195:1
15673:1 28704:1 14711:1 19633:1 12973:1
24657:1 10277:1 26958:1 23582:1 23291:1 10444:1 10828:1
15031:1 1840:1 11406:1 1962:1 10444:1 26845:1 7348:1
11041:1 22487:1 24201:1 9595:1
21002:1 8215:1 208:1 2221:1 2810:1 10444:1 13186:1
6804:1 14548:1 2810:1 26156:1 16863:1 13691:1
26483:1 12560:1 1407:1 25010:1 28576:1
4944:1 20992:1 20529:1 220:1 18106:1 11777:1 12783:1 9621:1
306:1 15356:1 22627:1
11940:1 25229:1 10997:1 28664:1 10569:1 9532:1 15948:1 23902:1
26165:1 26781:1 28522:1 17145:1 24249:1 10105:1
7648:1 19355:1 13217:1 1297:1 524:1
9179:1 14035:1 8797:1 14646:1 1659:1 20427:1 11880:1 220:1 4643:1
26786:1 8015:1 20992:1 27114:1 28419:1
38:1 25845:1 22656:1 21350:1 19091:1 7748:1 388:1
6923:1 24745:1 6093:1 21265:1 26482:1 26136:1 27709:1
6682:1 1840:1 23939:1 22508:1 17876:1 15576:1
55:1 23291:1 601:1 1059:1
5790:1 25354:1 10997:1 9989:1 13542:1 23884:1
4415:1 22746:1 18017:1 26165:1 848:1 21252:1
996:1 14041:1 5928:1 21671:1 847:1
18632:1 17525:1 17490:1 10444:1 10828:1
25945:1 1297:1 2029:1 23582:1 26461:1 10521:1 23418:1 17241:1 9532:1 26240:1 3720:1
3027:1 11494:1 5877:1 27547:1 98:1 11456:1 11718:1 25600:1 15891:1
17403:1 879:1 11863:1 23666:1 16872:1 13887:1
8991:1 23288:1 13926:1 10444:1 6263:1 14938:1 27521:1
947:1 1074:1 16859:1 2174:1 23424:1
28104:1 15031:1 25010:1 3503:1 20413:1
15304:1 9406:1 9532:1 6594:1 17415:1 7348:1
17498:1 3092:1 16044:1 4820:1 28448:1 24499:1 19732:1 25514:1
21484:1 26262:1 11619:1 21141:1 21852:1 220:1
24529:1 28716:1
13374:1 6396:1 24180:1
8197:1 5993:1 3125:1 25061:1
2673:1 23062:1 14144:1 25600:1 18949:1 2579:1 26518:1
19858:1 15841:1 10444:1 18365:1 6920:1
20214:1 23990:1 18135:1 14221:1 27742:1 20687:1 23841:1
3186:1 19539:1 5449:1 8264:1 563:1 11538:1 5668:1 12471:1
24929:1 12852:1 7412:1 6292:1 6705:1
22102:1 21204:1 26417:1 7929:1 27992:1 19911:1
15805:1 24499:1 388:1 18366:1 14325:1
7149:1 12745:1 5115:1 21002:1 26193:1 17449:1
2642:1 17332:1 15961:1 11015:1 10101:1 23421:1
21484:1 11041:1 396:1 24201:1 8197:1
4441:1 5449:1 13934:1 13361:1 3385:1
8386:1 2329:1 19318:1 23572:1 12809:1 27521:1
21879:1 25879:1 1297:1 24459:1 15425:1 24895:1 5322:1
14305:1 424:1 24996:1 16013:1 27521:1
7009:1 23608:1 9371:1 13329:1 6093:1 12471:1 21525:1 13843:1
24838:1 5840:1 12471:1 26451:1 18374:1 7468:1
12471:1 22804:1 22158:1 21475:1 3186:1 18674:1 23705:1
12557:1 9870:1 18743:1 28002:1 18949:1 17435:1 15997:1 13584:1
28027:1 15009:1 18114:1 6823:1 16863:1 8798:1
25267:1 6114:1 1696:1 947:1 13887:1 939:1
4337:1 8523:1 28634:1 4125:1 7000:1 20570:1 19175:1 5501:1 19924:1
12471:1 6121:2 14033:1 24499:2 10444:1 7667:1
10444:1 16221:1 16155:1 10570:1 220:1 7348:1
26963:1 27080:1 769:1 18402:1 6713:1 25547:1
11980:1 4133:1 16923:1 11027:1 24791:1 23360:1
18080:1 7127:1 21671:1 1634:1
4362:1 19651:1 11494:1 20153:1 9639:1 494:1 17628:1
7009:1 18155:1 17666:1 11145:1 24180:1
768:1 17525:1 12471:1 13887:1 28395:1 25519:1 24459:1 25547:1 14577:1 10997:1 13843:1
12208:1 1442:1 3717:1 12471:1
6637:1 3214:1 12471:1 993:1 6048:1 14500:1 563:1 19835:1 10444:1 7937:1
6240:1 11792:1 26273:1 13276:1 27077:1 10444:1 27080:1 18681:1
2525:1 16236:1 11384:1 5308:1 28140:1 24499:1 13207:1
10614:1 3051:1 13134:1 19054:1 21265:1 5809:1
5178:1 10831:1 28643:1 20436:1 25562:1 10444:1
26066:1 14656:1 3437:1 10444:1 4693:1 19815:1 448:1
3850:1 14690:1 20722:1 2030:1 28643:1 25369:1
13141:1 24351:1 24944:1 220:1 28188:1
28027:1 18114:1 2916:1 14649:1 2810:1 16080:1 22123:1
15714:1 19818:1 5449:1 8386:1 509:1 12371:1
21297:1 7885:1 3822:1
5955:1 4820:1 16221:1 8383:1 8020:1 7348:1
4065:1 3974:1 7649:1 5981:1 20672:1
23958:1 6422:1 24217:1
16666:1 25589:1 19823:1 27975:1 13887:1
20819:1 10888:1 23884:1 7716:1 18835:1 13993:1 4529:1
22847:1 1468:1 13887:1 12639:1 9507:1 21265:1 367:1
15177:1 13207:1 18306:1 24631:1 8230:1 25782:1 21671:1 1771:1
19830:1 12384:1 8788:1 10692:1 1074:1 24180:1
25600:1 24800:1 28377:1 12783:1 19968:1
20992:1 11815:1 21949:1 21964:1 14422:1 1907:1 11341:1
10901:1 9334:1 16689:1 2810:1 4636:1 23029:1 3804:1
12471:1 12545:1 28359:1 4111:1 2075:1 8804:1 17346:1
3740:1 2105:1 19105:1 14089:1
28643:1 18069:1 20010:1 24217:1 127:1
11728:1 12471:1 6326:1 28522:1 10742:1
8197:1 27128:1 12471:1 8133:1 4847:1 23389:1 27499:1 13843:1
26946:1 14979:1 4129:1 16713:1 9532:1 10444:1 6968:1
17810:1 24003:1 2011:1 9595:1 11612:1
11230:1 5790:1 25194:1 26592:1 4584:1
21964:1 6510:1 25236:1 4726:1 3720:1
11408:1 8505:1 21390:1 23884:1 13614:1
20186:1 9750:1
21186:1 3027:1 12471:1 11718:1 21547:1 16151:1 25600:1 12808:1 27230:1 13843:1
24529:1 7439:1 15594:1 5278:1 20911:1 24499:1
18847:1 19902:1 5769:1 5465:1 16945:1 11520:1
17514:1 7765:1
10586:1 15806:1 12726:1 12471:1 23608:1 6907:1 3566:1 13843:1
18561:1 16184:1 813:1 7092:1 4111:1 1134:1 27583:1 95:1
686:1 12471:1 23292:1 14221:1 413:1 3186:1 21831:1 15466:1 18691:1
21613:1 7335:1 28377:1 25600:1
6159:1 17947:1 24499:1 24173:1 13065:1
18847:1 26810:1 2810:1 16553:1 25267:1 13186:1
14626:1 10783:1 3186:1 4702:1 10444:1 1904:1
8302:1 15477:1 5703:1 1313:1 27618:1
12560:1 22624:1 27729:1 5082:1 5798:1 9853:1 6186:1 13240:1
2112:1 21372:1 3569:1 14451:1
18239:1 563:1 8916:1 10828:1 28625:1
5932:1 3509:1 6923:1 25492:1 16133:1 220:1
16574:1 3569:1 2223:1
22311:1 2404:1 28218:1 19602:1 3191:1 22905:1 9364:1 16850:1
25111:1 27056:1 12370:1 5920:1 1763:1
8110:1 16554:1 12390:1 15432:1 21881:1 5499:1 27086:1 21277:1 23635:1 10324:1
8197:1 10587:1 12783:1 3720:1
20992:1 19159:1 17171:1 19902:1 20634:1 13641:1
25993:1 28217:1 3608:1 24180:1
17525:1 11215:1 1632:1 3186:1 17241:1 10182:1
6876:1 24651:1 11728:1 26399:1 23705:1 24015:1 22609:1
22297:1 22943:1 13750:1 28377:1 9705:1 24499:1
10597:1 20077:1 23955:1 17301:1 1245:1 28188:1
1020:1 15013:1 121:1
17710:1 12562:1 6186:1 18793:1 10444:1 3020:1
6876:1 5928:1 10918:1 4847:1 28324:1 28707:1 14089:1
5449:1 19518:1 13819:1 19432:1 10970:1
8426:1 18702:1 17664:1 12973:1 21547:1 9288:1 5273:1
7432:1 6093:1 28643:1 10444:1 3045:1 3720:1
16860:1 21671:1 28266:1 18170:1
3186:1 2054:1 21121:1 27643:1 8770:1
6705:1 12471:1 3186:1 18296:1 21121:1 2066:1 20903:1
21547:1 1153:1 9288:1
20656:1 28345:1 27230:1 11836:1 17164:1
6640:1 4558:1 2642:1 24499:1 16241:1 13304:1
15297:1 16417:1 13578:1 7335:1
3475:1 22847:1 12471:1 24271:1 9359:1 16338:1 10444:1 9325:1
7861:1 8936:1 21250:1 10636:1 13092:1
12001:1 14399:1 15260:1 2700:1
22896:1 17335:1 28387:1
25324:1 20555:1 28377:1 5127:1 7196:1 15622:1
21274:1 27080:1 18444:1 24499:1 9083:1 22960:1
20351:1 13388:1 24499:1 14064:1
5635:1 10444:1 23282:1
17171:1 26584:1 2370:1 4238:1
11729:1 14190:1 7468:1 17275:1 847:1 20021:1 18163:1 20634:1
27650:1 12852:1 12028:1 14415:1
13926:1 10444:1 27080:1 13744:1 18172:1
17946:1 13080:1 7432:1 6740:1 13926:1 16013:1
26748:2 21566:1 6908:1 14064:1 25067:1 16554:1 7343:1 12471:1 26644:1 20958:1 28781:1 24301:1
28027:1 768:1 28195:1 17267:1 6473:1 26328:1 3361:1
25336:1 8504:1 19897:1 3190:1
14303:1 28027:1 19911:1 18369:1 4439:1
26064:1 12471:1 13207:1 11395:1 4195:1
15630:1 1297:1 21060:1 19732:1 10444:1 4932:1 771:1
21613:1 24344:1 9334:1 23837:1 14325:1
16330:1 17834:1 12726:1 23909:1 12843:1 27521:1 25964:1 25890:1 17628:1
5678:1 7601:1 14409:1 19902:1 26893:1
7432:1 27135:1 13276:1 3186:1 28341:1 2937:1
19412:1 25010:1 16143:1 19719:1 6536:1
17361:1 23705:1 24434:1
10143:1 11575:1 15948:1 23884:1 13430:1
28387:1 1297:1 12390:1 7803:1 24499:1 3720:1
28417:1 9978:1 4875:1 2121:1 20478:1
18155:1 16194:1 1723:1 19314:1 13276:1
17176:1 17024:1 14986:1 13887:1 28395:1
3027:1 27650:1 28326:1 1666:1 19564:1 11718:1 15477:1 13887:1 17089:1
2054:1 7040:1 2316:1 11501:1 19275:1
19322:1 563:1 8219:1 21390:1 4443:1
2075:1 21815:1 17101:1 27729:1 6396:1
5187:1 3741:1 563:1 16772:1 4163:1 10444:1 16918:1
18552:1 15802:1 6093:1 10277:1 7842:1 6594:1 10444:1
768:1 5624:1 3186:1 21121:1 4013:1 10444:1 11408:1 27521:1
7032:1 14809:1 618:1 4536:1 13373:1 13887:1
26843:1 6352:1 26098:1 17928:1 22534:1 13048:1
11918:1 16923:1 23705:1 21772:1 27965:1 5449:1 22483:1 10444:1 8933:1 1937:1 850:1
10329:1 4507:1 18360:1 26351:1 2700:1 1074:1 26570:1
27468:1 751:1 9384:1 10970:1 10444:1 13887:1
3168:1 9989:1 15159:1 27521:1 13926:1 16190:1
22150:1 21665:1 17664:1
12827:1 1297:1 14110:1 27633:1 15616:1 26518:1 9406:1 14089:1 15583:1
2008:1 13899:1 27633:1 24728:1 4810:1 1587:1 24977:1
7608:1 11815:1 8875:1 891:1 4842:1 9836:1 8855:1
16085:1 1328:1 18650:1 7619:1 7748:1
21805:1 5678:1 18719:1 12471:1 9347:1 891:1 21881:1 3186:1 13843:1 21499:1 13584:1
22847:1 3990:1 26958:1 634:1 28643:1 24003:1 27521:1
24899:1 12176:1 6168:1 28634:1
1950:1 13887:1 13207:1 26958:1 1964:1 6186:1 22567:1 25256:1
9498:1 27327:1 15802:1 21517:1 4441:1 21613:1 24703:1 28417:1 17275:1 9324:1
21274:1 139:1 24731:1 16073:1 18388:1
4441:1 8890:1 24180:1 9133:1 9301:1
26440:1 17834:1 20736:1
2601:1 17541:1 16481:1 24731:1
22119:1 5115:1 7897:1 8209:1 9769:1
12783:1 27070:1 12560:1 26827:1 24019:1 16646:1
4864:1 28676:1 22722:1 18564:1 12002:1
1213:1 6004:1 4829:1 1606:1 14339:1 601:1 14089:1
14068:1 11230:1 27855:1 14926:1 3864:1
26518:1 25599:1 14389:1 6230:1 27521:1
2579:1 11998:1 7939:1 14281:1
27650:1 25600:1 17201:1
768:1 12954:1 23213:1 21610:1 11969:1
9333:1 8197:1 4069:1 3525:1
14303:1 439:1 2642:1 4282:1 28375:1
11230:1 5693:1 2218:1 1297:1 9301:1
9643:1 21629:1 16802:1 5568:1 5413:1 22214:1 1442:1
8193:1 769:1 24459:1 12135:1 25926:1 13691:1 10444:1
17241:1 12193:1 7711:1
14763:1 8197:1 26079:1 14972:1 17514:1 16477:1 24499:1 10444:1
898:1 6001:1 16882:1 3720:1
560:1 18077:1 23705:1 27521:1
5678:1 24913:1 1225:1 21144:1 20706:1 16879:1 16013:1
23967:1 10444:1 8831:1 4163:1
15509:1 18061:1 27056:1 26485:1 28592:1 4861:1 17133:1
27650:1 12384:1 680:1 3919:1 22366:1 220:1 3880:1
23371:1 11106:1 10444:1 23884:1 23665:1
11438:1 21991:1 27977:1 11732:1 16028:1
12286:1 18706:1 5449:1 25334:1 8302:1
2877:1 10444:1 28697:1 26845:1 21151:1
27650:1 25600:1 21812:1 7241:1 9166:1
15341:1 16528:1 8698:1
12148:1 8598:1 26508:1 18776:1 20836:1
6130:1 22626:1 1297:1 10342:1 9532:1 937:1 2029:1
22890:1 1316:1 12545:1 19838:1 61:1
28387:1 24712:1 25600:1 20728:1 10742:1 23421:1
15708:1 22336:1 14194:1 8197:1 5350:1 24499:1 10444:1 9392:1 5951:1
1371:1 25324:1 11729:1 22052:1 20634:1 19815:1 13887:1
55:1 21261:1 7241:1 23841:1
26461:1 8302:1 27837:1 1297:1 24180:1
13367:1 10997:1 3864:1 23360:1 5790:1
16986:1 12471:1 24301:3 26829:1 26589:1 24499:1
1226:1 20863:1 23043:1 2772:1 20890:1
17834:1 17664:1 9932:1 14221:1 21265:1 1118:1 220:1
19037:1 21499:1 11022:1 28377:1
4712:1 2642:1 12193:1 14303:1 24499:1 22567:1 16758:1 14926:1
10072:1 9957:1 3725:1
26568:1 20586:1 16435:1 5992:1 6396:1
1371:1 25871:1 2418:1 27499:1
10586:1 21547:1 20610:1 6292:1 14310:1
24643:1 19791:1 10491:1 28329:1 22875:1 8202:1 13979:1 15831:1
105:1 1297:1 4328:1 306:1 22697:1 10828:1 866:1
16239:1 17525:1 847:1 993:1 18366:1 19130:1
5877:1 9908:1 20242:1 28166:1 23251:1 25116:1
24417:1 10901:2 12399:1 27420:1 9301:1
15797:1 7196:1
1051:1 1297:1 6922:1 2810:1 3186:1 19823:1 1763:1
18761:1 28387:1 19012:1 1116:1 27940:1 26040:1
5140:1 22002:1 5115:1 10444:1 5877:1
18191:1 28621:1 12745:1 16081:1 26508:1 27521:1
773:1 26363:1 12638:1 10929:1 22971:1 17171:1
24338:1 5567:1 13946:1 3186:1 10444:1 15403:1
14189:1 7432:1 26165:1 8302:1 25598:1 20235:1
28618:1 17644:1 939:1 7394:1 25010:1 6839:1
18230:1 98:1 11104:1 6243:1 11456:1 11432:1 661:1 24180:1
9333:1 24565:1 25094:1 12471:1 15253:1 25483:1 3048:1 13843:1
6400:1 4072:1
19468:1 847:1 20160:1 242:1 25123:1
17143:1 18230:1 18569:1 19897:1 4575:1 10444:1
20238:1 19440:1 1996:1
2174:1 23424:1 8101:1 947:1 2316:1 18198:1
8059:1 26519:1 25813:1 16802:1 12807:1 23282:1 17687:1 9923:1 2541:1 220:1
4755:1 26933:1 12827:1 2251:1 5291:1 7625:1
28643:1 13750:1 11022:1
20404:1 17635:1 18343:1 3991:1 24970:1 16577:1 7348:1 25664:1
19322:1 1297:1 14558:1 14016:1
21626:1 19855:1 898:1 23291:1 13044:1 2954:1
23015:1 13:1 20529:1 26478:1 14089:1
21444:1 26963:1 3572:1 20065:1 10444:1 14399:1 8723:1 3539:1 27521:1
24584:1 10694:1
25720:1 21547:1 23842:1 12030:1 14428:1
12852:1 20836:1 13750:1 651:1 8504:1
28281:1 26963:1 2121:1 24074:1 6792:1 3191:1 25010:1 13926:1 16061:1
9446:1 6302:1 25010:1 25094:1 23778:1
9532:1 15630:1 18408:1 26892:1
20003:1 13857:1 5524:1 27080:1 4248:1
20847:1 21499:1 648:1 24731:1
15868:1 9054:1 5626:1 8433:1 16408:1
25838:1 22656:1 220:1 26516:1 14339:1
12827:1 7335:1 26518:1 5567:1 10444:1 14089:1
27476:1 12471:1 21204:1 11538:1 3186:1 7495:1
21805:1 15868:1 22427:1 2221:1 3186:1 12471:1 3191:1 163:1
23813:1 12471:1 11441:1 20342:1 14077:1 19924:1 13843:1
5355:1 21499:1 1873:1 4352:1 13584:1
6884:1 26963:1 5744:1 8106:1
7909:1 11106:1 16860:1 19850:1
27700:1 15437:1 21547:1 1258:1 25010:1 12134:1
23333:1 9908:1 12370:1 16975:1
18940:1 9595:1 8523:1
15645:1 17710:1 10110:1 7412:1 20426:1
19564:1 25774:1 18949:1 12865:1 71:1 20836:1
25695:1 13501:1
13469:1 24192:1 26845:1 26811:1 4439:1
17057:1 25462:1 23296:1 8033:1 13926:1 8955:1
3168:1 16264:1 19924:1 4691:1 12639:1 19151:1 24499:1
13884:1 20912:1 127:1 24074:1 24289:1 4636:1 24499:1 10444:1 12783:1
20322:1 3036:1 23842:1 2137:1 14428:1
12902:1 26478:1 12028:1 2370:1
12237:1 13655:1 27230:1 12783:1 14443:1
26363:1 20270:1 21436:1 647:1 13377:1
15806:1 1297:1 16923:1 21610:1 26461:1 8302:1 18502:1
5835:1 12471:1 21265:1 28676:1 14022:1 13843:1
2209:1 3092:1 1313:1 20672:1
21356:1 21292:1 10444:1 18308:1 2401:1
23504:1 968:1 7597:1 23665:1 26590:1
23374:1 11812:1 26958:1 3475:1 28643:1 23820:1
16408:1 26709:1 22445:1 25336:1 9639:1 6455:1
10292:1 26748:1 20830:1 7748:1 14618:1
8689:1 15802:1 8073:1 22463:1 25319:1 21613:1 10444:1
11842:1 768:1 27855:1 4195:1 11230:1 6740:1 18679:1
768:1 8084:1 21204:1 18756:1 3186:1 4810:1
18835:1 2105:1 14587:1 10314:1 17664:1
608:1 22150:1 4391:1 11895:1 20018:1
18261:1 7939:1
20819:1 14106:1 11596:1 28217:1 23705:1 6968:1
17498:1 3092:1 1552:1 23360:1
18322:1 12807:1 23622:1 14305:1 15627:1 13196:1
8197:1 7798:1 8257:1 9699:1 26946:1
13926:1 2054:1 10444:1 18563:1 13887:1
27075:1 768:1 10551:1 28454:1 4129:1
23296:1 25325:1 13881:1 17802:1
24216:1 13291:1 25462:1 14303:1 4352:1 20610:1 2723:1
13887:1 15011:1 2197:1 19222:1 6186:1 24499:1 21265:1 15084:1 220:1
4411:1 11799:1 5176:1 14016:1
6972:1 751:1 6163:1 3186:1 12471:1 1287:1 27352:1 13300:1 8675:1
27855:1 6586:1 28377:1 24180:1
21613:1 139:1 15697:1 2912:1 15869:1
16827:1 17975:1 241:1 19682:1
28634:1 15073:1 14896:1 17362:1 16417:1 12783:1 17237:1
20618:1 718:1 12471:1 25819:1 13843:1
22746:1 6447:1 24271:1 18756:1
26354:1 21879:1 13114:1 28417:1 25219:1
769:1 5634:1 21434:1 23705:1 25256:1 27521:1
12471:1 8463:1 26461:1 6457:1 17876:1 26328:1 9670:1 20454:1
2912:1 9989:1 1375:1 16013:1 13693:1
18191:1 26963:1 5986:1 8065:1 4847:1 12783:1 11969:1
21274:1 12858:1 2701:1
28011:1 8928:1 19329:1 18163:1 6740:1
25196:1 1814:1 20024:1 4369:1 16155:1 14089:1
17963:1 13529:1 13744:1 26576:1 23291:1 14441:1
7132:1 3990:1 1918:1 13529:1 847:1
10901:1 16080:1 20942:1 27352:1 20010:1 13887:1
20559:1 20806:1 10063:1 7599:1 9301:1
12514:1 1153:1 1616:1 19850:1 21991:1 4352:1
12953:1 21475:1 9836:1 14089:1 16031:1
21356:1 813:1 751:1 16923:1 18585:1 25067:1 6972:1 10444:1
24499:1 2121:1 28487:1
18670:1 21626:1 27056:1 17482:1 23508:1 3186:1 11770:1 12471:1 23917:1
27168:1 17176:1 2463:1 10199:1 15714:1
18410:1 20281:1 18073:1 12559:1
3168:1 13367:1 15063:1 12471:1 9050:1 25180:1 22234:1
27742:1 21284:1 5115:1 20194:1 20242:1
8959:1 20202:1 2121:1 5122:1 4163:1
2945:1 25591:1 220:1 26568:1
26644:1 28791:1 21536:1
12673:1 10974:1 1442:1 2700:1 12399:1 21671:1
14645:1 24003:1 26688:1 3990:1
10901:1 12185:1 26446:1 12651:1 1225:1 9338:1 14546:1 220:1
563:1 998:1 14022:1 17615:1 24249:1
14191:1 25050:1 8491:1 17390:1
18191:1 15356:1 16200:1 17498:1 3990:1
13367:1 11529:1 11395:1 13887:1 21300:1
24614:1 24459:1 9371:1
14343:1 20185:1 19264:1
3385:1 6371:1 26447:1 13588:1 21917:1
22255:1 19170:1 3725:1 11548:1
27380:1 4712:1 23716:1 9267:1 11078:1 10453:1 1297:1 9532:1 18273:1 3190:1
26363:1 12471:1 24572:1 3186:1 8773:1 4742:1 23360:1
14418:1 10444:1 24791:1 7207:1 21179:1
7625:1 1175:1 15945:1
4108:1 8582:1 13255:1 3872:1 12658:1 2810:1 13186:1
220:1 24009:1 17664:1 19564:1 8145:1 8857:1 10816:1 15402:1 17260:1 6382:1
10444:1 26447:1 19855:1 3020:1
23295:1 23251:1 2679:1 235:1 12005:1
10019:1 6709:1 24329:1 26760:1 8866:1
9639:1 55:1 24288:1 3782:1
10063:1 10901:1 20806:1 27855:1 26958:1
20185:1 2128:1 1216:1 4133:1 13908:1
6135:1 2741:1 27497:1 18008:2 24499:1 20010:1 18155:1
10107:1 1417:1 15920:1 19564:1 5510:1
127:1 5635:1 5391:1 21368:1
4266:1 15836:1
15957:1 24123:1 9620:1 5920:1 6093:1 24499:1 25182:1 24859:1
14782:1 21678:1 20082:1 12002:1 11104:1 28522:1
12462:1 23870:1 22123:1 8292:1 28417:1
19276:1 3572:1 26850:1
10019:1 4861:1 4441:1
15604:1 13752:1 10444:1
14581:1 9361:1 1632:1
21319:1 20259:1 10551:1 26740:1 2137:1
6741:1 26605:1 22622:1 15586:1 1118:1
4250:1 11118:1 16923:1 27520:1
24158:1 18467:1 3525:1
25600:1 478:1 1791:1 21250:1 14896:1
17143:1 27086:1 23358:1 24364:1 28377:1 15432:1 25600:1 23512:1 2316:1 13825:1
9760:1 14809:1 8356:1 24301:3
24584:1 10694:1 27344:1 28125:1 220:1 20903:1
24301:3 24671:1 11619:1
14218:1 2679:1 1559:1 22859:1 2121:1 25547:1
5024:1 9313:1 4988:1 1297:1 28707:1 777:1
847:1 28423:1 21252:1 19329:1 4847:1
16239:1 3168:1 27080:1 363:1 15697:1 8271:1
19187:1 24499:1 27855:1 23389:1 301:1
2575:1 12726:1 22604:1 26205:1 5082:1
17834:1 14986:1 7264:1 7625:1 19835:1 22567:1
3443:1 5077:1 3281:1 14080:1
26451:1 21799:1 9594:1 11221:1 10828:1 14325:1
4369:1 20529:1 19512:1 25991:1 9682:1
10997:1 23884:1 17797:1 15602:1 10444:1 12454:1
3191:1 6362:1 847:1 10444:1 55:1 2316:1
14550:1 3569:1 14372:1 21983:1 11022:1
17975:1 12436:1 12987:1 3864:1 19318:1 20080:1 10199:1 11060:1
20706:1 10444:1 17317:1 28487:1 4163:1 1073:1 10192:1 19200:1 2121:1 17626:1
10444:1 20009:1 27520:1 9528:1 23213:1
14221:1 25339:1 6828:1 6632:1
26748:1 19151:1 61:1 7025:1 5980:1 20687:1 6642:1
1864:1 12471:1 26155:1 4507:1 3186:1 13949:1 2408:1 23837:1 13086:1
15188:1 12212:1 18163:1 15802:1 847:1 24499:1 10654:1 13563:1
27056:1 11575:1 9989:1 5391:1 19772:1
14221:1 11375:1 5602:1
28106:1 21342:1 23519:1 16834:1 14792:1 21169:1 8133:1
8197:1 22453:1 20370:1 27550:1 24768:1 10569:1 28314:1 5115:1
200:1 9532:1 24231:1 7625:1 5328:1
14351:1 13090:1 25194:1 3040:1 11395:1
11951:1 20722:1 6093:1 28643:1 24499:1 2011:1 448:1
367:1 10199:1 11696:1 25267:1 13186:1
19420:1 28740:1 10951:1 21500:1 24070:1
6792:1 6362:1 17144:1 2752:1 3186:1 24499:1 10444:1 220:1
12384:1 24087:1 18707:1 8054:1 8210:1 21036:1
22915:1 12471:1 195:1 23305:1 9532:1 21991:1 15031:1
14587:1 19157:1 7036:1 1287:1
3760:1 23546:1
9532:1 27521:1 5690:1 15031:1
15237:1 7006:1 6326:1 10444:1 26447:1 18849:1
7411:1 1287:1
12471:1 26478:1 22848:1 25926:1 18502:1 7577:1 13843:1
24572:1 4861:1 26363:1 5981:1 8227:1
28387:1 12667:1 17512:1 23778:1 10247:1
19322:1 11383:1 24217:1 16474:1
11487:1 20912:1 26850:1 12471:1 18876:1 19850:1 21547:1 9595:1 4575:1
25742:1 23418:1 1710:1 12135:1
5764:1 16452:1 2605:1 4427:1 10444:1 26442:1
16500:1 27744:1 4149:1 105:1 6960:1 17241:1 8838:1
17389:1 8204:1 14218:1 21323:1 6326:1 23917:1
15130:1 9690:1 14134:1 5790:1 10615:2 24292:1
6705:1 11599:1 7634:1 13312:1 12172:1
10444:1 28613:1 19811:1 11703:1 1587:1
4661:1 2367:1 10997:1 4238:1 23884:1 2218:1
6093:1 12362:1
19826:1 15827:1 23239:1 6396:1
6093:1 26982:1 3774:1
26508:1 27372:1 17903:1
28281:1 27468:1 17089:1 9682:1 1166:1
13828:1 18270:1 16945:1 21725:1 27709:1
6159:1 14351:1 19353:1 23305:1
4549:1 4097:1 7540:1 5703:1 12658:1
11882:1 17869:1 17666:1 18686:1 28307:1 6740:1 22981:1
11348:1 18261:1 24459:1
3647:1 18806:1 3127:1 18721:1 3417:1 13938:1 106:1 28217:1
20992:1 19564:1 6159:1 26893:1 24499:1 20773:1
23279:1 26442:1 23902:1
307:1 4947:1 20859:1 6751:1 55:1 219:1 16598:1
17418:1 20912:1 4563:1 2236:1
10500:1 18824:1 10828:1 23884:1
14351:1 10444:1 16435:1 7727:1
4032:1 21475:1 19518:1 20996:1 2121:1
3150:1 2956:1 10444:1 14639:1 25010:1 19231:1 3409:1 6920:1
5678:1 18114:1 753:1 15706:1 9187:1
28027:1 13887:1 12471:1 28021:1 1616:1 10430:1 11106:1 20806:2 15088:1 23360:1
19518:1 8002:1 648:1 9939:1
7212:1 10036:1 16778:1 22013:1 7972:1 25006:1 16832:1
28318:1 24499:1 10303:1 220:1 13934:1 14351:1 24791:1 28781:1
10444:1 26709:1 28359:1 16614:1
18153:1 25559:1 11395:1 16864:1 10444:1 23778:1
28217:1 19514:1 21815:1 2370:1 25180:1 8031:1
20722:1 13750:1 1369:1 2976:1 9639:1 11022:1
11275:1 21250:1 20385:1 7220:1 28643:1 20204:1 2075:1
26210:1 16689:1 563:1 5198:1 9165:1 11367:1
6460:1 3720:1
11728:1 14854:1 22881:1 24180:1
6198:1 3475:1 21805:1 615:1 18569:1
21211:1 28643:1 2075:1 24217:1
19318:1 17975:1 13839:1 9948:1 17947:1
6923:1 12784:1
25194:1 21482:1 24451:1 8930:1 813:1 258:1 8510:1 26802:1 14016:1
27138:1 2912:1 14053:1 10659:1 13970:1
26786:1 4237:1 9928:1 330:1 23705:1 13887:1
8068:1 13926:1 26319:1 16080:1 10875:1 16681:1 8741:1
8197:1 27056:1 23508:1 28643:1 28324:1 10444:1
12471:2 23884:1 10325:1 1601:1 10444:1 18155:1
769:1 28021:1 1616:1 15756:1 14924:1 16475:1 11408:1 21991:1 23705:1 25256:1 23884:1
25474:1 6086:1 10970:1 4352:1 13277:1 4142:1
11106:1 25747:1 10742:1
17150:1 54:1 18685:1 28268:1 9187:1 21537:1 15400:1 10444:1
26363:1 16709:1 7169:1 847:1 24997:1 20518:1 21300:1 9271:1 8675:1
21755:1 26363:1 27855:1 10444:1 12783:1
24572:1 12982:1 26363:1 24962:1 13316:1
9123:1 6823:1 21613:1 9639:1 19277:1 838:1
15280:1 16638:1 12471:1 11538:1 24499:1 14343:1
24444:1 28387:1 13186:1 2553:1 4847:1
17418:1 4415:1 1225:1 24797:1 5278:1 25319:1 20572:1 2809:1
15697:1 19772:1 10637:1 11349:1 9057:1
8356:1 17607:1 10444:1 10256:1 25334:1 10828:1
1297:1 28359:1 26516:1 16484:1 7798:1 220:1
17825:1 16015:1 27521:1
15616:1 13046:1 19225:1
5992:1 16435:1 4266:1
28387:1 25647:1 28796:1
8928:1 6004:1 4179:1 12783:1 12638:1
21683:1 17834:1 14986:1 2810:1 18135:1 20997:1 9364:1
13367:1 12471:1 3186:1 9050:1 11998:1 19518:1
26861:1 5449:1 69:1 23797:1
105:1 1297:1 931:1 28592:1 18968:1 16580:1
16588:1 23069:1 14290:1 16778:1
16339:1 13367:1 12443:1 28643:1 5790:1
26568:1 21323:1 20227:1 19527:1
12726:1 14691:1 13074:1 5841:1 27853:1 26136:1 19924:1
484:1 4415:1 18569:1 14099:1 21772:1 17947:1 22567:1
19612:1 3806:1 13207:1 2681:1
10950:1 7825:1 5626:1 23444:1 21336:1
26963:1 26644:1 10444:1 23127:1
4875:1 22746:1 15260:1 7335:1 558:1
1916:1 23884:1 20010:1 27927:1 16923:1
23274:1 10140:1 10444:1 6186:1 21464:1 19018:1
20518:1 19518:1 3572:1 22855:1
13276:1 3007:1 10444:1 8618:1
26448:1 3155:1 6972:1 24180:1
14138:1 8580:1 28795:1 14515:1
18719:1 20435:1 23811:1 19277:1
23518:1 28417:1 24731:1 21837:1
13687:1 23182:1 20529:1 10444:1
27080:1 26709:1 4757:1 7264:1 28410:1 10742:1
6818:1 5615:1 22971:1 24499:1 18:1 8059:1 2605:1 24180:1
15157:1 751:1 1738:1 28547:1 25607:1 25256:1
9421:1 10444:1 13475:1 19036:1 20835:1 5703:1
21626:1 19751:1 28040:1 21121:1 11724:1 16554:1
3385:1 23211:1 13887:1 2305:1
10002:1 6866:1 258:1 20010:1
21077:1 21701:1 14399:1 21940:1 15464:1
4810:1 23360:1 12877:1 20806:1 18750:1 18896:1 7102:1 10782:1 4930:1 6920:1
3168:1 15697:1 12947:1 6112:1 6501:1
22810:1 10444:1 6594:1 26328:1 19948:1
14946:1 6620:1 16155:1 23453:1 1123:1
8926:1 24728:1 2810:1 26156:1 16830:1 4143:1 17294:1
27729:1 5115:1 21678:1 20728:1 9769:1
12384:1 7776:1 7412:1
16500:1 25770:1 14422:1 7335:1
4415:1 26306:1 7398:1 12443:1 9532:1 21265:1
21805:1 1287:1 1297:1 8133:1 20518:1 21323:1 637:1
20728:1 24180:1 22628:1 12695:1 4847:1
15897:1 3930:1 20488:1 19880:1 18308:1 9513:1 3020:1 9325:1 15403:1 220:1 13052:1
10901:1 4591:1 18792:1 18502:1 11497:1
10888:1 16211:1 16874:1 16481:1
7439:1 17876:1 3594:1 381:1 14041:1 9595:2 24499:2 16155:1 5928:1 15031:1
20877:1 27380:1 27360:1 26611:1 15253:1 9532:1 7134:1 882:1 5115:1
28027:1 26963:1 6923:1 3334:1 23997:1 28628:1 11092:1 15980:1 12101:1
10817:1 12471:2 208:1 20347:1 6093:1 18900:1 525:1 13843:1
2579:1 22656:1 13529:1 28377:1 21252:1
17653:1 10444:1 1297:1 12807:1 1335:1
19264:1 24980:1 8591:1 23250:1 8639:1 4444:1
13688:1 12471:1 2214:1 3186:1 14351:1 21356:1 22567:1
27048:1 23013:1
28538:1 12835:1 1349:1 25339:1
12389:1 5626:1 4477:1 10569:1
28027:1 15253:1 14809:1 25010:1
15488:1 5391:1 4595:1 15920:1 8505:1 13887:1
25845:1 24057:1 9898:1
8197:1 17191:1 5198:1 9532:1 23360:1 13573:1
22128:1 27080:1 11729:1 6395:1 16013:1
3191:1 2121:1 16798:1 4740:1 10191:1 2151:1
18561:1 8582:1 527:1 21297:1 11704:1 5510:1
23518:1 20239:1 5024:1 9313:1 13430:1 7711:1 10748:1 3569:1
769:1 13887:1 16155:1 20255:1 2116:1 5835:1
4415:1 14399:1 21353:1 20065:1 18793:1 15088:1
8256:1 14548:1 16161:1 12:1 5546:1 25600:1 13186:1 28536:1
14303:1 5602:1 24731:1 17616:1 17533:1
10774:1 8356:1 8724:1 448:1
2110:1 23342:1 1738:1 10654:1
12471:1 8151:1 8219:1 14408:1 7423:1 21300:1 16554:1 10204:1 13843:1
12119:1 4415:1 4149:1 12471:1 23884:1 1275:1 7502:1 9187:1 15926:1 27521:1
6818:1 19651:1 16104:1 13063:1 24200:1
10063:1 23884:1 20806:1 24499:1 10444:1 20010:1 13887:1
6159:1 27360:1 27589:1 1616:1
14550:1 472:1 21390:1 23418:1 22467:1
21465:1 12471:1 8133:1 13843:1 5322:1 20536:1 5129:1 18308:1
18847:1 14068:1 7397:1
8878:1 7680:1 18081:1
12237:1 25600:1 14310:1 20728:1 12783:1 5052:1
769:1 14281:1 13887:1 1369:1 9187:1 7956:1 25600:1 2075:1 26952:1 28377:1 220:1
6565:1 24769:1 10444:1 3045:1 23282:1
28027:1 220:1 16382:1 4847:1 14550:1 5327:1 22099:1 27186:1 24459:1
16127:1 3186:1 10444:1 8209:1 16558:1 28707:1
6093:1 20918:1 27290:1 20242:1 3287:1 21904:1
3699:1 20529:1 6594:1 4441:1 24499:1 5608:1 718:1
7032:1 12675:1 17184:1
21610:1 14521:1 12471:1 5247:1 1399:1 10199:1 23469:1 23778:1 21449:1
27650:1 27128:1 3007:1 20147:1 10444:1 2541:1
8774:1 25959:1 14951:1 25265:1 24499:1 2642:1
569:1 24499:1 18949:1 5494:1 10444:1 11003:1
14206:1 11431:1 10444:1 18308:1
15134:1 20010:1
9245:1 6008:1 5841:1 5991:1 7079:1 6326:1
1695:1 7599:1 25010:1 2121:1 2221:1 9639:1 26431:1 2978:1 11352:1
26845:1 1492:1 10978:1 17113:1
7872:1 27709:1 8646:1 25600:1 1193:1 388:1
25007:1 9639:1 55:1 21250:1
26786:1 13171:1 20393:1 13964:1 25334:1 20343:1
18239:1 9328:1 7853:1 26063:1 3186:1 6875:1 26136:1 6990:1
17317:1 26382:1 10444:1 6186:1 19018:1 10443:1 27521:1
13655:1 19651:1 7412:1 5981:1 12471:1 13958:1 16101:1 14325:1
17881:1 19453:1 18845:1 20322:1 2062:1 8770:1
4441:1 14550:1 19930:1 28522:1 3181:1
10481:1 26963:1 3086:1 2401:1 20212:1 9909:1
10901:1 1297:1 14926:1 9532:1 16481:1 15353:1 11969:1
26316:1 26963:1 1442:1 27650:1 8696:1 2508:1 15544:1 9425:1
5449:1 9532:1 771:1 1033:1 20018:1
25395:1 8783:1 20672:1 25574:1 18170:1 28419:1
6818:1 16358:1 6455:1 16052:1 22881:1
12471:1 22971:1 26604:1 7394:1 20186:1 9551:1
12756:1 21671:1 11408:1 26735:1 27521:1
24063:1 1343:1 25519:1 1335:1 3240:1 12471:1 13843:1
4847:1 1145:1 24003:1 24731:1 11516:1 16455:1
21877:1 12237:1 8499:1 26508:1 25524:1
10453:1 4947:1 25615:1 9187:1 24773:1 24791:1 19126:1 3168:1 2810:1 2066:1 24499:1 17666:1
220:1 10444:1 23209:1 28188:1 22567:1 24944:1 6396:1 5625:1
16864:1 7583:1 15260:1 3171:1
27650:1 25600:1 26843:1 1369:1 13581:1
9047:1 6700:1 5064:1 27744:1 8675:1 19306:1 25547:1
26963:1 18170:1 18306:1 14896:1 847:1 6093:1
21356:1 105:1 1297:1 21671:1
3027:1 13750:1 13392:1 16727:1 9673:1 7392:1
20721:1 10444:1 4435:1 7335:1
2328:1 3058:1 25371:1 17876:1
20378:1 26891:1 10444:1 24499:1 26584:1 4643:1 14325:1
2505:1 3007:1 4403:1 21613:1 10444:1 23360:1
23518:1 16080:1 10303:1 16923:1 9271:1
8197:1 26963:1 17064:1 847:1 5256:1 751:1 21356:1
16239:1 12471:1 6297:1 27218:1 24664:1 28284:1
27105:1 3007:1 9836:1 28377:1 2403:1 16155:1 12783:1 16240:1 24199:1
9639:1 8136:1 2015:1 4369:1 19001:1 12334:1 18155:1
16080:1 27742:1 20586:1 25890:1 15031:1
13828:1 9532:1 18155:1 11815:1 24768:1
18366:1 25926:1 25700:1 17619:1 21613:1
16088:1 23291:1 22468:1 563:1
8020:1 5567:1 15403:1 2218:1 28417:1 3361:1 10738:1
768:1 12471:1 28636:1 4708:1 3186:1 23705:1
1074:1 12370:1 12651:1 15984:1 12521:1 10444:1 16772:1
13887:1 12877:1 11384:1 20806:1 23360:1 23884:1
12417:1 27080:1 23884:1 16120:1 11408:1 10828:1
19924:1 28570:1 19902:1 21949:1 4781:1 23251:1 12471:1 26136:1 26356:1
10470:1 718:1 16200:1 19900:1 19959:1 25700:1 494:1
14221:1 8170:1 8088:1 16500:1 23890:1
25790:1 27380:1 3361:1 20242:1 2579:1 26508:1 13186:1 5835:1
8197:1 3127:1 18569:1 5720:1 13522:1 13926:1
14221:1 24565:1 2121:1 8877:1 494:1
2224:1 7972:1 24351:1 7748:1
15704:1 23342:1 23705:1 26210:1 2218:1
17710:1 7432:1 11863:1 17687:1 11106:1 4765:1 10444:1 10186:1 7748:1
21671:1 21315:1 6715:1
4305:1 10320:1
1297:1 13255:1 5941:1 26165:1 28643:1 21300:1 24499:1 14408:1
26448:1 3328:1 13065:1 22604:1 24015:1 18057:1 22609:1
23277:1 5449:1 54:1 11406:1
9333:1 11155:1 1297:1 8182:1 11991:1 25267:1 26845:1
769:1 27136:1 12370:1 24768:1 6093:1 3725:1 4439:1 12638:1
24421:1 14089:1 1293:1 18306:1 23350:1 17237:1
7168:1 7412:1 1530:1 24459:1 7045:1
9639:1 55:1 17362:1
18201:1 14339:1 27855:1 10444:1
11494:1 21300:1 19518:1 13373:1 13839:1
28027:1 12465:1 7545:1 24791:1 1398:1 5803:1 28745:1 18365:1 4687:1 27086:1 20370:1 220:1 15432:1 24499:1 12471:2 16101:1 16730:1
9446:1 22348:1 1685:1
8203:1 2011:1 16798:1
6314:1 25565:1 12033:1 23884:1 5532:1
17720:1 22131:1 25926:1 5644:1 24180:1
9033:1 26390:1 14957:1 22986:1
14515:1 5494:1 27943:1 4643:1 850:1
12471:1 25010:1 20414:1 11868:1 7264:1 21125:1 21265:1 27015:1 6396:1
439:1 15868:1 10875:1 22931:1 9133:1
23970:1 26156:1 28314:1 14500:1 563:1 6302:1 12842:1
22621:1 19495:1 12028:1 6740:1 20107:1
4800:1 6006:1 13641:1
11364:1 10444:1 206:1 4808:1 13612:1
2853:1 6302:1 12138:1 20687:1 4184:1
24499:1 12092:1 220:1 27745:1 18713:1
20460:1 5954:1 7281:1 28359:1
15532:1 23182:1 12237:1 26165:1 20518:1 20410:1 1882:1
9406:1 3303:1 16631:1 9332:1 26552:1 12471:1 14016:1
25600:1 23972:1 27855:1 15020:1 14325:1
21755:1 1814:1 13120:1 27174:1
6460:1 3720:1
1864:1 10597:1 12564:1
1442:1 5912:1 27070:1 14402:1
12831:1 18667:1 2810:1 5596:1 27314:1 23778:1
23529:1 27709:1
28318:1 16264:1 25389:1 24499:1 3020:1 4411:1
3186:1 10444:1 21075:1 16013:1 17119:1
3740:1 20812:1 1297:1 11384:1 24737:1
21484:1 15802:1
6093:1 8302:1 6186:1 10444:1 26508:1
25339:1 12471:1 1040:1 25945:1 7195:1 4810:1 10444:1 21252:1 9164:1
15802:1 9166:1
13527:1 26363:1 12471:1 3447:1 10444:1 15465:1
26932:1 5154:1 2137:1 8930:1 18968:1
773:1 1369:1 25509:1 14550:1 21350:1 17825:1
25790:1 18968:1 28229:1 14022:1 1864:1
17967:1 3191:1 9957:1 23517:1 8872:1 5673:1 7773:1
12177:1 13367:1 14351:1 13926:1 1587:1 1375:1
12183:1 27855:1 11619:1
25600:1 513:1 21610:1 8906:1
23605:1 28266:1 27745:1 18968:1 14022:1 5322:1 21292:1
16172:1 1982:1 23940:1 13887:1
9461:1 5602:1 22984:1 26165:1 13934:1 27109:1 6920:1
2215:1 335:1 18308:1 14550:1 6752:1 9325:1 11608:1
13367:1 17056:1 9989:1 25615:1 26328:1 7348:1
26963:1 3589:1 27521:1 25225:1 2268:1
6796:1 26867:1 12471:1 9513:1 99:1 27076:1 20728:1 18502:1 25369:1 22343:1 8465:1
16817:1 18140:1 17581:1 3051:1
10444:1 25094:1 24499:1 8326:1 19341:1
38:1 3127:1 14451:1 11104:1 9730:1 2062:1 8770:1
12471:1 17695:1 8133:1 22209:1 23622:1 7956:1 24768:1 2723:1 13843:1
25600:1 28324:1 22777:1 16373:1 5115:1
23620:1 12730:1 5778:1 25:1 8417:1 3186:1 1723:1 12471:1 95:1 27583:1
23901:1 20281:1 1225:1 9532:1 3599:1 9769:1
28217:1 23884:1 813:1 23475:1 14399:1 10444:1 12783:1
28586:1 18636:1 14218:1 15926:1 4260:1 16013:1
24536:1 10613:1
8197:1 220:1 11235:1 1864:1 21368:1 23032:1 15466:1 6396:1
14281:1 28185:1 7546:1
17675:1 28522:1 891:1 8302:1 24566:1 24180:1
3517:1 26199:1 21954:1 11211:1
769:1 8504:1 14221:1 21613:1 6586:1 27618:1
16528:1 2128:1 14089:1 20385:1
471:1 11074:1 21158:1 18170:1 24499:1 9424:1 13887:1 15039:1
86:1 791:1 2121:1 16050:1 7627:1
22150:1 26834:1 24499:1 3816:1 1632:1
20728:1 28387:1 23841:1
21547:1 4205:1 4847:1
20679:1 18114:1 17444:1 13479:1 9821:1
25094:1 3642:1 12658:1 20728:1 24499:1 681:1
9488:1 16279:1 1733:1 3437:1 6093:1 28643:1 24880:1
3240:1 21323:1 13196:1 8491:1 1359:1
5198:1 15836:1
25600:1 4238:1 11619:1 16221:1
14318:1 25587:1 27633:1 20453:1 20387:1 6093:1 12471:1
15345:1 18706:1 19451:1 12807:1 5406:1 7672:1 4312:1
16239:1 19495:1 26958:1 3978:1 15697:1 24003:1
18505:1 13482:1 17321:1 11619:1
8917:1 17267:1 13750:1 28377:1 25600:1 9673:1 19361:1 12569:1
21304:1 12638:1 23837:1 6093:1 15984:1 16758:1 144:1 14325:1
4415:1 7432:1 21999:1 15215:1 24040:1 23884:1
5930:1 24499:1 27946:1 6963:1 22676:1
10444:1 3864:1 24451:1 813:1
25903:1 12783:1 6326:1 25256:1 19207:1
1752:1 12852:1 21525:1 12028:1
14930:1 26835:1 16859:1 6093:1 3186:1 3092:1 12471:1
19036:1 15372:1 10997:1 19949:1 20672:1 3720:1 10444:1 12256:1 19954:1
3191:1 27054:1 21954:1 21451:1 13926:1 5378:1 20170:1
686:1 2075:1 9957:1 28707:1 21812:1
24718:1 563:1 27793:1 19897:1 5844:1
11476:1 16989:1 21833:1 5327:1
26835:1 22047:1 11028:1 5732:1 16827:1
7110:1 18095:1 11619:1
28434:1 5199:1 10587:1 7335:1 23512:1
21964:1 3911:1 28229:1 25161:1 26376:1
12917:1 25324:1 26379:1 26640:1 3186:1 15868:1 6309:1 4643:1
9034:1 13744:1 2976:1 14828:1 881:1 3723:1
23084:1 20377:1 6318:1
28022:1 25600:1 23418:1 23637:1 24271:1
38:1 8197:1 4457:1 11104:1 10444:1 4323:1
23527:1 27080:1 8582:1 24038:1 1002:1
7603:1 26568:1 21075:1 1864:1 18949:1 21671:1 2653:1 18505:1
3457:1 847:1
26963:1 10810:1 12471:1 16445:1 20672:1 23069:1 13843:1
27808:1 5963:1
3814:1 27080:1 619:1 17926:1 14035:1
4666:1 19924:1 2575:1 17275:1 10067:1 10444:1 367:1
12:1 1316:1 8804:1 28522:1 8770:1
12092:1 634:1 28557:1 18235:1 23622:1 6515:1 7348:1
21274:1 5748:1 17777:1 10652:1
22328:1 26958:1 1915:1
24367:1 17056:1 24499:1 11592:1 1313:1
1861:1 5134:1 16923:1 5164:1 10135:1 16200:1 24499:1 22209:1
27230:1 26478:1 5644:1 24180:1
10147:1 26709:1 21394:1 6497:1 25010:1 10444:1
17418:1 25600:1 16417:1 6400:1
14451:1 718:1 7842:1 13504:1 12783:1
17881:1 21805:1 4116:1 24548:1 9532:1 16013:1
20378:1 3911:1 15855:1 26306:1 15697:1 847:1 13784:1
8348:1 20586:1 24441:1
18149:1 27660:1
20992:1 18055:1 7502:1 947:1 21390:1 25267:1 25547:1
3168:1 15383:1 22847:1 23884:1 23118:1
22895:1 18616:1 25879:1 6396:1 24459:1
5921:1 7972:1 27975:1 601:1 13887:1
19588:1 14431:1 5464:1 22689:1 24499:1 15237:1
9406:1 5115:1 20370:1 16689:1 2810:1 11637:1 23243:1
10875:1 22931:1 7714:1
4441:1 3186:1 8639:1 9164:1 13186:1 13584:1 27700:1 12471:1 10987:1 2810:1 10410:1 16190:1
28318:1 718:1 1297:1 28637:1 5478:1 9682:1
17664:1 7241:1 19239:1 21547:1 10036:1 27589:1
9128:2 1317:1 17751:1 2449:1 26540:1 18955:1 7201:1 3014:1 13936:1 27086:1 12471:7 7412:1 6345:1 24481:1 15432:1 19691:1 55:1 24791:1 28491:1 7042:1
17072:1 7348:1 10615:1 24499:1 10444:1 14132:1
27471:1 10614:1 22433:1 8336:1 3569:1 22791:1 22609:1
5237:1 11679:1 10997:1 15945:1
5244:1 19256:1 14194:1 7471:1 17138:1
6818:1 12942:1
18848:1 26518:1 6292:1 7396:1 19135:1
3277:1 2137:1 27791:1 17484:1 2529:1 25336:1
8748:1 15188:1 21733:1 15802:1 25526:1 3945:1 3303:1 15755:1 3569:1
22374:1 17187:1 7348:1 21012:1 1563:1 3720:1
17881:1 9908:1 9939:1 26850:1 24499:1 22960:1
14448:1 1297:1 13693:1 27813:1
11155:1 10559:1 4116:1 9371:1 19277:1 5424:1
26604:1 1814:1 18630:1
18297:1 21879:1 28229:1 13693:1 12889:1 4643:1 10954:1 17217:1
28318:1 5655:1 8333:1 28781:1 26379:1
12148:1 19169:1 3576:1 27942:1 11863:1 24001:1 26850:1 23512:1
2956:1 10569:1 18793:1 18830:1 18977:1
19054:1 24499:1 18204:1 3437:1 3280:1 7823:1 18793:1 9208:1 17666:1
3027:1 12557:1 3321:1 16954:1 756:1 21252:1 25334:1 572:1
15297:1 12471:2 1297:1 7728:1 11076:1 10444:1 18457:1 19130:1
21831:1 12940:1 7680:1 2642:1
7006:1 25010:1 15237:1 220:1 21135:1
4415:1 2854:1 5024:1 9313:1 23884:1 12389:1 13276:1 20816:1 18308:1
27356:1 25653:1 16367:1 8855:1
23580:1 2853:1 2579:1 18702:1 19539:1 24499:1 18220:1
13687:1 24499:1 21050:1
23008:1 24015:1 11804:1 10587:1 3864:1 13317:1 3466:1 494:1 6606:1 22609:1
