26786:1 20418:1 26189:1 7728:1 20773:1
10444:1 21407:1 18619:1 22503:1
1225:1 20281:1 3051:1 23141:1 26851:1 11585:1 22471:1
686:1 20831:1 4266:1 26812:1 24344:1 25010:1 5754:1
14064:1 25879:1 8493:1 16673:1 6592:1 16033:1 23705:1 4020:1
3833:1 4879:1
753:1 25780:1 18313:1 27044:1 24499:1 21213:1
12852:1 6326:1 20207:1 6982:1
26930:1 10147:1 8582:1 24630:1 12942:1 21397:1
21043:1 16155:1 24630:1 25010:1
17834:1 23733:1 20111:1 25010:1 10444:1 27420:1 20773:1
23955:1 24485:1 11997:1
24499:1 23146:1 16155:1 26588:1 24173:1
4307:1 20586:1 5930:1 28588:1
2586:1 12675:1 5089:1
9590:1 12563:1 2751:1 1840:1 5449:1 24499:1
11494:1 17834:1 21890:1 26193:1 7842:1 17628:1 17777:1
14343:1 14139:1 27988:1 1764:1 15714:1 22686:1
21274:1 23153:1 4974:1 21799:1 3579:1 17517:1 1727:1 10444:1 808:1 23421:1
18195:1 21265:1 1240:1
26604:1 26843:1 21539:1
21274:1 7215:1 27617:1 19277:1 8493:1 7376:1
21174:1 19187:1 13556:1 3460:1 10135:1 8703:1 25039:1 24499:1 6235:1 15039:1
22860:1 12525:1 4369:1 16681:1 18155:1
10521:1 13655:1 28395:1 7348:1
5449:1 17270:1 6926:1 14979:1 7348:1
24499:1 11619:1 28188:1 16484:1
18191:1 10111:1 21831:1 2579:1 26518:1 23069:1 13304:1
2137:1 20992:1 12783:1 21708:1 5391:1
26783:1 12506:1 18636:1 20560:1 19631:1 8857:1 8773:1 13300:1 12343:1
11823:1 16200:1 2579:1
14103:1 16681:1 19129:1 19284:1
17389:1 10597:1 2127:1 2062:1 13887:1
23160:1 24540:1 1297:1 4163:1 16699:1 10070:1 20010:1 27375:1 27521:1
877:1 18581:1 14389:1 7301:1 20261:1
6272:1 22141:1 12612:1
26976:1 22392:1 17525:1 19345:1 10444:1
13585:1 13820:1 5198:1 16155:1
17339:1 28387:1 10636:1 23519:1 16197:1
12177:1 3582:1 21029:1
2956:1 17339:1 6257:1 10695:1
12726:1 22982:1 10147:1 4641:1 1727:1
6198:1 12726:1 14689:1 8863:1 2328:1 25010:1
21424:1 24499:1 12545:1 27521:1 20674:1 28463:1 12259:1
686:1 21274:1 14854:1 16929:1
23998:1 13522:1 1297:1
3027:1 13655:1 3668:1 7090:1 7045:1 7168:1
28461:1 24529:1 9594:1 22960:1 4755:1
26963:1 11916:1 2755:1 16050:1
7087:1 10600:1 5711:1 13577:1
10058:1 5815:1 16090:1
16884:1 15802:1 27424:1
20874:1 19797:1 1074:1 10444:1 20773:1
20135:1 11106:1 26363:1 14548:1 47:1
19986:1 25558:1 24584:1 9602:1
19322:1 26363:1 18581:1 2579:1 25886:1 18244:1 20050:1
21493:1 7439:1 28506:1 12396:1 16436:1
20344:1 28178:1 22453:1 10508:1 2511:1
4415:1 1360:1 575:1 4693:1 25698:1 16681:1
24777:1 3266:1 2508:1
21274:1 14110:1 23990:1 6876:1 1225:1 13887:1 9324:1
3229:1 8959:1 15997:1 25270:1 4163:1
26363:1 14548:1 12726:1 21064:1 422:1 23037:1 10822:1
4415:1 21983:1 19838:1
8927:1 9629:1 1655:1
14515:1 3841:1 12730:1 1288:1
5738:1 19129:1 20019:1 8681:1
22011:1 24499:1 22112:1 1313:1 2305:1
17448:1 21274:1 9620:1 19784:1 17269:1 13790:1
8451:1 21857:1 804:1
20812:1 19880:1 20487:1 381:1 18481:1
14139:1 24499:1 23527:1 17231:1 7348:1
10607:1 26339:1 19129:1 19924:1
7412:1 23602:1 14940:1 28274:1
25010:1 9595:1 24499:1 21277:1 15544:1 22960:1 11065:1
8087:1 9594:1 12172:1 19001:1
21319:1 26691:1 4693:1 21212:1 23939:1 24499:2 12471:1 16015:1 220:1
10725:1 12784:1 1253:1
16155:1 11022:1
26963:1 3569:1 6923:1 12057:1 12278:1
16149:1 26843:1 7439:1 5278:1 24371:1 24499:1
12286:1 19784:1 3361:1 1332:1
6534:1 8768:1 19631:1 6314:1 5703:1 19129:1 220:1
20135:1 21274:1 1976:1 784:1 13046:1
13134:1 2112:1 24499:1 8495:1 9676:1
14281:1 15594:1 4693:1 877:1 22855:1
23015:1 11041:1 12942:1 2062:1
16577:1 954:1 27550:1
21319:1 25886:1 21340:1
15802:1 15797:1 2919:1
20490:1 4149:1 12827:1 370:1
4558:1 7215:1 27060:1 23282:1 24572:1 10551:1 4641:1 3605:1
5790:1 17311:1 19308:1 1368:1 11907:1 5473:1
9053:1 14339:1 8133:1
8495:1 9898:1 23834:1 28196:1
13527:1 2299:1 4500:1
12852:1 19564:1 5082:1 25812:1 220:1 7348:1
25128:1 13749:1 16085:1 8656:1 24639:1
14946:1 1297:1 16155:1 11551:1
22860:1 13749:1 8426:1 17876:1
22144:1 9690:1 7215:1 5551:1 25339:1 27680:1 7348:1
18793:1 11929:1 23472:1 15465:1
19501:1 7439:1 2137:1 759:1 26374:1 24499:1 15425:1 10796:1 16015:1
12836:1 2642:1 533:1 22206:1
4065:1 28673:1 20992:1 12730:1 1297:1 7087:1 16740:1 5494:1
8689:1 27546:1 9228:1 20545:1 22240:1 8227:1
17974:1 10673:1 11048:1
19322:1 13186:1 14288:1
22527:1 22034:1 105:1 27384:1 24499:1 14828:1
26508:1 18369:1 28755:1
19322:1 10278:1 5398:1 28479:1 220:1 7348:1
15130:1 22885:1 7728:1 14289:1
1225:1 14930:1
20281:1 9084:1 9054:1
17403:1 23131:1 7040:1
12942:1 762:1 12259:1
21274:1 22333:1 12932:1 3017:1 22638:1
4861:1 21720:1 16433:1
26843:1 105:1 1297:1 7007:1 8802:1 8797:1 26205:1
15253:1 20904:1 16744:1 12947:1 10444:1 28519:1
23409:1 12675:1
26470:1 13342:1 2040:1 2121:1
19322:1 523:1 19771:1 19549:1 24499:1 7348:1
1642:1 3864:1 205:1 24246:1 21493:1 24499:1 10994:1
10278:1 28479:1 5398:1 6600:1 21186:1 24854:1 220:1 7348:1
10453:1 4755:1
11903:1 24540:1 12726:1 21831:1 22860:1 5199:1 27375:1
19322:1 18235:1
23160:1 21610:1 6193:1
23111:1 20103:1 26241:1 5082:1 12286:1 13772:1 24499:1 27589:1 11969:1
127:1 10444:1 5383:1
9490:1 13655:1 9699:1 2203:1
15612:1 26363:1 25660:1 14714:1 16872:1 2728:1 9853:1
3605:1 25591:1 220:1 7348:1
5231:1 23218:1 8876:1 5833:1 10569:1 8219:1 24499:1 220:1 6514:1
21274:1 17876:1 3401:1 6314:1 25886:1 5965:1
19850:1 6730:1 8466:1
14128:1 24236:1 27521:1 9287:1 12259:1
21274:1 12137:1 4020:1 14527:1 1814:1
26016:1 5833:1 18569:1 26604:1 28053:1 7348:1
2112:1 7649:1
12389:1 22931:1 19917:1
746:1 14760:1 3484:1 13712:1
18235:1 8130:1 8205:1
1640:1 24499:1 9358:1 27990:1
5790:1 12471:1 10678:1 22845:1 24967:1 8595:1
7215:1 28664:1 10569:1 513:1 11464:1 23527:1 24129:1 9166:1 7277:1 16249:1 12471:1 220:1
7035:1 23834:1 14064:1 12311:1 15206:1 15948:1 1377:1
11233:1 20903:1
20982:1 23884:1 9461:1 15948:1 4742:1 27109:1 11089:1
15416:1 12471:1 26371:1 3186:1 1254:1 1312:1
18847:1 28461:1 23733:1 4755:1 9594:1 220:1
16367:1 24135:1 3525:1
26457:1 26514:1 26447:1 20010:1
22808:1 15697:1 6542:1 28161:1
11235:1 21831:1 13887:1 18977:1
12315:1 14689:1 28136:1 20592:1 1723:1 22206:1
5678:1 26963:1
686:1 26611:1 24499:1 13857:1
6093:1 18302:1 8493:1 4833:1
20794:1 24499:1 28196:1 16155:1 14792:1 25789:1 28545:1
22808:1 10551:1 14166:1 26518:1 13821:1 14826:1
9238:1 26574:1 3411:1
14228:1 8861:1 3536:1
924:1 649:1 13141:1 12471:1 2235:1 20628:1 2570:1 25886:1 25547:1
23043:1 4369:1 25094:1
4369:1 22847:1 23069:1 16200:1 8205:1 22469:1 24499:1 7615:1 19161:1 220:1
22394:1 25010:1 27230:1 20452:1 4273:1
21424:1 26233:1 3752:1
27142:1 3704:1 11022:1 25435:1
3973:1 18235:1 95:1 26738:1 7468:1
19277:1 2329:1 18323:1
25782:1 25991:1 12954:1
2579:1 22234:1 10734:1 16744:1 26590:1
11135:1 14515:1 25558:1
16397:1 310:1 1297:1 18191:1 16798:1 27706:1
11896:1 7740:1 6235:1 2679:1
22860:1 1526:1 14406:1 11903:1
7648:1 2579:1 23242:1 9874:1 565:1
12852:1 7348:1 1297:1 5179:1 7317:1
877:1 23745:1 10067:1 19129:1 2305:1
26963:1 478:1 15140:1 2808:1 17896:1 22757:1
18011:1 10444:1 27520:1
17929:1 26363:1 23015:1 7504:1 7220:1 2825:1 22969:1 10444:1 16699:1
12037:1 28413:1 22860:1 10444:1 1976:1 220:1 9371:1
22848:1 20545:1 24499:1 28715:1 19924:1
16528:1 16085:1 13749:1 22757:1
24004:1 3374:1 25503:1
5678:1 17825:1 27211:1 1655:1
2112:1 25558:1 16542:1 23539:1
23858:1 13186:1
25236:1 95:1 5413:1
563:1 24499:1 28208:1
26963:1 26562:1 14699:1 24499:1 4446:1 7348:1
14910:1 8660:1 7680:1 1783:1
18452:1 22370:1 25052:1
15376:1 24630:1 22931:1 1313:1
6420:1 20326:1 28662:1
3569:1 3411:1 22596:1 937:1
6358:1 6705:1 22531:1 18306:1 3914:1 26604:1 220:1
21159:1 23874:1 1907:1 23829:1
22860:1 23716:1
877:1 16717:1 3048:1 11619:1 850:1
20162:1 2461:1 8193:1 25890:1
8758:1 14756:1
16:1 10453:1 21424:1
10536:1 25193:1 2755:1 912:1
22258:1 15775:1
14343:1 2174:1 21215:1 24031:1
2910:1 6395:1 24289:1
15338:1 15140:1 16802:1 24594:1
3867:1 15836:1 13493:1 17666:1
25812:1 15039:1 4499:1
22521:1 21539:1 13588:1 10051:1
25105:1 28324:1 25010:1 12228:1 1499:1
23366:1 4558:1 23282:1 12145:1 13632:1 10444:1 7536:1
23387:1 9898:1 7107:1 26349:1
14343:1 26417:1 769:1 12638:1 4517:1 7348:1
1118:1 12635:1 14276:1 10356:1
26838:1 245:1 21407:1
26611:1 15976:1
10997:1 10521:1 22234:1 7504:1 21539:1
1283:1 10453:1 15257:1 8133:1 5970:1
9349:1 17411:1
22576:1 16621:2 16681:1 20404:1
5553:1 26518:1 22881:1
5992:1 12471:1 1419:1 1283:1 15902:1
20271:1 17144:1 388:1
3404:1 6368:1 9879:1 5082:1
15742:1 23008:1 21493:1 4426:1 24820:1
17975:1 17061:1
6711:1 18608:1 19118:1
8943:1 12471:2 1297:1 18661:1 22258:1 23598:1 9052:1 16472:1 19360:1
24236:1 6674:1 3411:1 10444:1
2123:1 18271:1 24499:1 1626:1 28791:1 2062:1
7168:1 19612:1 21525:1 22881:1 14854:1
26363:1 28487:1 22258:1 20773:1 6570:1 22497:1
22860:1 1814:1 26186:1 13857:1 15836:1
23527:1 8582:1 15788:1 19880:1 26189:1
16600:1 692:1 23837:1 19838:1 21159:1 27202:1 28522:1 14325:1
27571:1 17834:1 21984:1 24434:1 7842:1 9898:1
15168:1 24499:1 19675:1 23118:1
3036:1 22860:1 11903:1 18539:1 17700:1 8035:1
5553:1 21277:1 19277:1 24607:1
7504:1 23939:1 24572:1 5738:1 3569:1 7625:1
26774:1 17193:1 680:1 21613:1 12895:1 20454:1
25105:1 7302:1 7574:1 8384:1 24722:1 1187:1 28522:1 16763:1
26604:1 27114:1 1517:1 7585:1
20992:1 10005:1 28768:1 2484:1 26949:1 24499:1 26518:1
23029:1 22865:1 21064:1
15482:1 10742:1 13482:1
4882:1 5439:1 6923:1 19924:1 27929:1 1080:1 24499:1
14343:1 18191:1 7439:1 528:1 22258:1 680:1 24499:1 1939:1
25591:1 21991:1 1616:1 220:1
12462:1 7348:1 25658:1 4335:1 2062:1 7353:1 644:1
18195:1 12852:1 27727:1 3039:1
20057:1 14500:1 27476:1 24499:1 8242:1
19322:1 19739:1 2846:1 12471:1 19564:1 11493:1 773:1 22258:1 24499:1 13624:1 823:1
24529:1 17172:1
14138:1 1074:1 8878:1 2370:1
11106:1 14417:1 2413:1 8581:1 387:1
27800:1 7748:1 16436:1
4423:1 6421:1 16033:1 22726:1
21274:1 24996:1 10826:1
20721:1 14910:1 15594:1 7705:1
4297:1 19024:1 21265:1
10673:1 6326:1
7798:1 2462:1 25886:1 2642:1 24180:1
10673:1 16587:1 2137:1 18630:1
10753:1 12944:1 26371:1 10433:1
26673:1 3484:1 14926:1 22219:1 1207:1 4426:1 9324:1
4441:1 25890:1 12852:1 19129:1 1882:1
5654:1 12895:1 2467:1 1019:1
20802:1 17710:1 18343:1 2462:1
26843:1 649:1 18448:1 3667:1 21186:1
8804:1 28030:1 28188:1
23744:1 4305:1 20352:1 2909:1 15452:1 28733:1 16763:1
27827:1 17932:1 20634:1 21149:1 18505:1
5678:1 17834:1 20194:1 11225:1 12172:1 8681:1 3569:1 3589:1
4801:1 2755:1 26447:1
16514:1 23945:1 7829:1 4163:1
20344:1 23361:1 911:1 1072:1
14456:1 686:1 11792:1 15326:1 17975:1 24538:1 16536:1
11566:1 26909:1 15424:1 9517:1
6741:1 25827:1 22931:1 24371:1 11106:1 24499:1
27142:1 4558:1 24465:1 3051:1 3186:1 1316:1 11464:1 22960:1 7728:1
20257:1 5907:1 10067:1 19105:1 22131:1
19985:1 19440:1 14684:1 15880:1 11386:1
13749:1 21940:1 23286:1 14538:1 1095:1 19811:1 22960:1 16807:1
28637:1 12462:1 25216:1 8958:1 20773:1
18739:1 12942:1 20646:1 25291:1 23015:1 19653:1 12638:1
28461:1 4755:1 8215:1 1297:1 14926:1 4801:1 5449:1 14373:1
2755:1 16686:1
16200:1 21277:1
11386:1 3:1 3361:1 17241:1 4641:1
25450:1 1316:1 8581:1 4183:1
12551:1 9909:1 6729:1 16763:1 26379:1 2945:1 3186:1 23418:1 24499:1 27946:1 24180:1
26233:1 12471:1 3349:1
26265:1 15488:1 15836:1
6818:1 7007:1
26694:1 9373:1 6332:1
21210:1 16484:1 27615:1 11619:1 4163:1
7890:1 18976:1 26881:1 5287:1
13585:1 8197:1 1077:1 266:1
23744:1 7680:1 25890:1 7348:1
13393:1 24480:1 24499:1 22742:1
19858:1 12471:1 15257:1 14515:1 3186:1 13921:1
25785:1 23013:1 11498:1 17241:1 15997:1 18046:1
18073:1 19811:1 3328:1 22960:1 20013:1 16200:1 19490:1 14538:1
1775:1 5712:1 26604:1 12259:1 16015:1 7687:1
12365:1 7338:1 20736:1
22860:1 26963:1 28168:1 23945:1 2937:1
25123:1 27311:1 26570:1 9845:1 49:1 24499:1 220:1 15642:1
5127:1 11478:1 1140:1 3605:1
11728:1 19348:1 2107:1 14073:1 3411:1 9461:1
19216:1 6101:1 21746:1
877:1 28136:1 14315:1 10551:1 11079:1 25559:1 3720:1
17241:1 26189:1
4755:1 4149:1
20819:1 19664:1 19884:1
12852:1 8449:1 28375:1 3569:1 9639:1 12471:1 24180:1
26843:1 26518:1 15069:1 753:1 8361:1
10058:1 13607:1 8418:1
8426:1 8582:1 11728:1 24499:1 22123:1 9166:1
20992:1 27311:1
686:1 21857:1 18068:1 2245:1
25010:1 18619:1 20727:1
26843:1 9690:1 21546:1 3319:1 17084:1 16819:1 15706:1 28463:1
21424:1 27543:1 24907:1 14198:1 18323:1
6640:1 7959:1 10044:1 877:1 301:1
28027:1 27048:1 15594:1 17615:1 20454:1
18759:1 18630:1 1611:1 2137:1
25949:1 15465:1 12031:1 12865:1 80:1 4620:1 24499:1 20512:1
3447:1 15062:1 24205:1 22031:1 18271:1 13186:1
5790:1 17235:1 16923:1 1316:1 25010:1 7107:1 19207:1
19884:1 2755:1 8169:1 11889:1 7266:1
15320:1 17231:1 2989:1 15039:1 27521:1
4214:1 16080:1 21831:1
20904:1 1161:1 2541:1 26845:1 25010:1
21877:1 2956:1 24154:1 1814:1 25234:1 11592:1 26843:1 17666:1
14070:1 26518:1 16923:1 8205:1
3093:1 18907:1 11815:1 2137:1
7316:1 28395:1 22258:1 28744:1 25890:1 22471:1 9918:1
9620:1 16685:1 18678:1 25945:1 25010:1 26518:1 28781:1
4369:1 12726:1 19287:1 4163:1
24856:1 17932:1 12648:1
5950:1 12843:1
13388:1 24499:1 3624:1
19007:1 15380:1 9908:1
15227:1 4172:1 18214:1 8430:1 19828:1
3397:1 1775:1 27238:1 23288:1 10858:1 16367:1 12259:1
24777:1 3266:1 2508:1
1775:1 16045:1 9465:1 13254:1 1419:1 12259:1
13527:1 19631:1 14103:1 18306:1 10600:1
8748:1 17389:1 22960:1 20560:1
4208:1 4078:1 22158:1
21613:1 14110:1 27486:1
2370:1 28522:1
3752:1 5142:1 28624:1 6545:1
3393:1 20616:1 3314:1
12471:1 3447:1 1419:1 9909:1 10987:1 17631:1
1280:1 11882:1 12726:1 26963:1 28011:1 2579:1 26518:1 17834:1 7348:1
23874:1 25890:1
23858:1 26363:1 5517:1 4755:1
25236:1 19716:1 2121:1 17425:1 9898:1 95:1
22772:1 4203:1 1071:1 7362:1 24181:1 930:1
8801:1 385:1 20773:1
9901:1 8193:1 20353:1 3569:1 8804:1 24982:1
7241:1 24499:1 27314:1 762:1 23360:1
1840:1 25128:1 234:1 28522:1 12750:1
14728:1 4933:1 7348:1
8927:1 14910:1 25886:1 9301:1
7916:1 527:1 20560:1 9639:1 12155:1 7348:1
2583:1 950:1 3328:1 14746:1 4293:1 15594:1 10444:1 6235:1
9333:1 27425:1 8402:1 1814:1 10742:1 24786:1
10521:1 25010:1 22234:1 17185:1
10444:1 14016:1
23705:1 5553:1 4150:1 21139:1
22885:1 14419:1 19129:1 19613:1
25148:1 8193:1 9571:1 21969:1
7935:1 15836:1 13055:1 3640:1 7348:1
20876:1 27200:1 7973:1 12942:1 127:1
10268:1 12942:1 1283:1 4368:1 24499:1 4734:1
1297:1 21338:1 21409:1 17804:1 2945:1
26963:1 16284:1 1482:1 21831:1 7439:1 7335:1
19217:1 24744:1 21144:1 8983:1 5474:1 20010:1
15445:1 74:1 21651:1
12177:1 877:1 3115:1 20298:1 25255:1 18889:1 1600:1 3720:2
26161:1 26963:1 21893:1 4815:1 10140:1 21274:1 24499:1 25890:1 3720:1
4859:1 25206:1
21805:1 27827:1 2197:1 11081:1 24488:1 18170:1 3713:1 24249:1 25820:1
26604:1 28612:1 7107:1 10739:1
28009:1 24499:1 8582:1 2370:1
27863:1 14793:1
21661:1 2604:1 7504:1 22258:1 9898:1 17061:1 220:1 9637:1
6640:1 97:1 26604:1 25816:1 24499:1 55:1 95:1 22632:1
3404:1 12958:1 22584:1 26604:1 16519:1 25886:1
25021:1 18824:1 14624:1 4215:1 4975:1
18614:1 17138:1 10560:1 18388:1
6020:1 1499:1
8426:1 1546:1 27233:1 12298:1 1096:1 20560:1 27327:1 5970:1
13046:1 8133:1 9602:1
7756:1 23940:1 3720:1 25886:1 558:1
5790:1 26328:1 4829:1 11089:1
9052:1 1920:1
26604:1 2956:1 13107:1 9287:1
5392:1 8193:1 23109:1 13926:1 2755:1
12474:1 26339:1 13918:1 18542:1 20322:1 22206:1 10444:1 20010:1 26442:1 14848:1
6741:1 22847:1 24499:1 3234:1 16015:1
11728:1 21274:1 5678:1 28634:1
12619:1 9069:1 20560:1 7209:1 25601:1 7204:1 20502:1
20904:1 21482:1 16704:1
18084:1 11114:1 19129:1 7728:1
1723:1 20418:1 24499:1 10444:1 15489:1
10797:1 4032:1 25591:1 3589:1 21588:1
127:1 1701:1 13310:1 1727:1 8219:1 25789:1 10147:1
9426:1 14689:1 19222:1 4163:1
11728:1 24499:1 27851:1 4230:1
25900:1 1642:1 15802:1 18743:1 25600:1 10489:1
11882:1 20284:1 7728:1
28799:1 8310:1 20595:1
23141:1 12194:1 10673:1
23511:1 28463:1 16250:1
18167:1 7680:1 12942:1 27184:1 6266:1
8331:1 10875:1 7040:1 14451:1
26843:1 12973:1
19492:1 6093:1 12286:1 11486:1 25886:1 9166:1
26518:1 24003:1 10444:1 22960:1 6622:1
28324:1 7007:1 26339:1
21613:1 6280:1 1814:1
6120:1 25886:1 1019:1
2945:1 15226:1 15843:1
25928:1 12471:1 9153:1 15190:1 19001:1
13367:1 583:1 27855:1 2062:1 23604:1
20344:1 19967:1 10597:1 17311:1
14041:1 25902:1 1297:1 11969:1
38:1 5738:1 16097:1 24180:1 15836:1
12852:1 25010:1 10731:1 22258:1 25318:1 20773:1 21149:1 25934:1 20017:1 4072:1 4819:1 220:1
16794:1 15063:1 11815:1 20413:1 25262:1 5738:1 3411:1 8866:1
13167:1 19691:1 24244:1 2328:1 2986:1 21149:1
27382:1 8595:1 16923:1 25636:1
19539:1 23890:1 14891:1
11041:1 116:1 20773:1 5703:1 12272:1
18889:1 6705:1 2128:1 100:1 9982:1 15616:1 24499:1 3102:1 26381:1
22258:1 2995:1
8076:1 17923:1 15616:1 25886:1 6326:1 6332:1 3720:1
18289:1 27275:1
3975:1 27200:1 10082:1 7348:1
23858:1 10597:1 830:1 15836:1
22885:1 26748:1 28613:1 5398:1 17540:1 9898:1 818:1
10614:1 5115:1 4527:1 6216:1
7411:1 27048:1 22448:1 26774:1 15697:1
12519:1 20010:1 6865:1 24434:1
27077:1 5626:1 11140:1 27733:1 24499:1 1745:1
18649:1 12077:1 21513:1 16945:1
20344:1 10597:1 14110:1 25010:1 542:1 17825:1 7335:1 4592:1
28586:1 28009:1 27874:1
3385:1 20736:1 28522:1 1814:1 24499:1 6309:1 367:1
8598:1 3017:1 23115:1
28027:1 3027:1 16689:1 10444:1 28458:1 25886:1
20894:1 21879:1 20736:1
14958:1 12895:1 21277:1 18932:1 28634:1
7633:1 12942:1 2121:1 14306:1
26852:1 21720:1 8344:1
23998:1 24572:1 10522:1 8095:1 15908:1 27420:1
5544:1 26611:1 21203:1 12744:1
7481:1 2121:1 24180:1
4172:1 10490:1 438:1 26461:1 8461:1 14452:1
8872:1 27077:1 271:1 1116:1 18569:1 14111:1
28664:1 7916:1 5906:1 7728:1 12954:1
23418:1 20555:1 8759:1 4565:1
15227:1 19539:1 15706:1
23131:1 9809:1 15094:1 23288:1 24148:1
28375:1 27223:1 4119:1
20556:1 18073:1 3484:1 5568:1 13482:1 17475:1 11902:1 24499:1 5142:1 24745:1
18306:1 10849:1 3411:1 22931:1
14819:1 5449:1 22258:1 27874:1
2579:1 26701:1 16249:1 12259:1
18216:1 9595:1 15153:1 7348:1
17096:1 21274:1 25494:1 7829:1
4801:1 22567:1 10444:1 27311:1
19539:1 1775:1 643:1 17666:1 15706:1 5563:1 8291:1
5199:1 10212:1 12973:1
28637:1 2174:1 10831:1 20376:1 8830:1
24838:1 26363:1 25353:1 7412:1 2662:1 22960:1 7348:1
8356:1 7412:1 7728:1 10499:1 5199:1 24180:1
14111:1 17077:1 21639:1 25621:1
21820:1 22737:1 6235:1 6667:1 19091:1 3569:1 22881:1
2956:1 912:1 19991:1 14946:1 20560:1 9639:1 9069:1
27793:1 4709:1 25812:1 10444:1 17777:1 7348:1
14099:1 16767:1 27048:1 16268:1 21149:1
10131:1 20976:1 14848:1 26339:1
3280:1 20021:1 27211:1 2370:1 25886:1
28758:1 8461:1 3385:1 8511:1 3569:1 18408:1 18887:1
20721:1 21338:1 6101:1
22860:1 21274:1 26604:1 2645:1 24465:1
1814:1 7774:1 26762:1
26963:1 24499:1 18608:1 19225:1 17425:1 2174:1 22287:1 13926:1 4599:1 21402:1 2121:1
10453:1 20772:1 26902:1 27923:1
22721:1 15140:1 7504:1 3186:1 20318:1 10444:1 20817:1
10444:1 9069:1 2498:1
14403:1 24499:1 2450:1 24046:1 220:1
12176:1 5047:1 1518:1
1297:1 2094:1 8242:1 27940:1
17143:1 20560:1 10597:1 17431:1 4137:1
24529:1 21995:1
6640:1 11386:1 27230:1 23598:1 8230:1 17020:1 23896:1 13277:1 220:1
22808:1 17975:1 16872:1 12389:1 18549:1 22418:1
22392:1 7842:1 27589:1 20048:1 14509:1
12894:1 18718:1 16275:1 26827:1 26518:1 253:1 22535:1
11902:1 11610:1 12343:1 14854:1
19332:1 15807:1 19934:1
16155:1 14843:1 1112:1 14220:1 19001:1
7348:1 24499:1 17041:1 22931:1 7468:1
19161:1 20992:1 22847:1 27489:1
1748:1 11896:1 23218:1 16807:1 24722:1
5981:1 2203:1 6323:1 22895:1 12848:1 24180:1
15382:1 24499:1 27425:1 3903:1
12942:1 8577:1 17494:1 26518:1 26205:1 20010:1
1648:1 23179:1 21493:1 25010:1 21277:1 27675:1 22469:1
23874:1 2128:1 5836:1
28328:1 2642:1 2197:1
7756:1 21610:1 20467:1 24499:1 3328:1
7953:1 18083:1 13482:1 18889:1 24499:1 15485:1 14373:1
2192:1 26271:1 5224:1
18561:1 24499:1 6107:1 18161:1 24001:1 1814:1 19881:1 3577:1
21274:1 27044:1 18608:1 7504:1 8626:1
14172:1 19136:1
649:1 8490:1 7412:1 25334:1 28208:1
20002:1 7535:1 7412:1 25890:1
18191:1 3569:1 7649:1 9987:1 4599:1
660:1 21274:1 5686:1
25236:1 649:1 12852:1 27211:1 27303:1 10271:1 24499:1 8210:1 25334:1
5040:1 5391:1 10637:1
6620:1 22034:1 95:1 21613:1
11386:1 2455:1
10614:1 11926:1 24499:1 13718:1 9225:1 14111:1 9605:1 7319:1
9238:1 16667:1
3833:1 1899:1 27444:1
11386:1 9208:1 2316:1 778:1
17975:1 22847:1 26240:1 24180:1
16147:1 8906:1 2780:1 2995:1 24499:1 13186:1
22960:1 25010:1 15084:1 23829:1 20044:1
7572:1 23269:1 22931:1 26189:1 1840:1 7873:1 24499:1 7431:1 7619:1 15069:1
7916:1 12638:1 2679:1 1723:1 11393:1 8581:1
18191:1 20860:1 21319:1 26332:1 28522:1 15465:1
26584:1 20992:1 14550:1 25600:1 16249:1 10444:1 9375:1 12259:1
7756:1 20298:1 701:1
27356:1 18452:1 9069:1
13749:1 1642:1 19129:1
23884:1 16884:1 10828:1 14117:1
16689:1 12651:1 9187:1 23037:1 17876:1 22909:1
23141:1 26977:1 26363:1 12471:1 15465:1
3507:1 15445:1 8179:1 20234:1 1596:1 4979:1 24499:2 12471:1
4146:1 17453:1 6055:1 21390:1 18155:1
4415:1 8980:1 7728:1 9538:1 25192:1 762:1 22418:1
19322:1 4995:1 27230:1 28755:1
23255:1 16033:1 3569:1 577:1
14926:1 10444:1 2121:1 23282:1
4039:1 13693:1 22931:1 16872:1 20560:1 23037:1 7656:1 1240:1 7348:1
19305:1 18364:1 220:1 10613:1 10797:1 9911:1 1721:1
17150:1 24499:1 10725:1 3385:1
11096:1 25886:1
6000:1 5331:1 13556:1 19329:1 2507:1 2075:1 28530:1 17777:1
3280:1 15083:1 12471:1 7412:1 11608:1
24301:2 4575:1 27425:1 11022:1 9763:1 10444:1 22855:1
12177:1 26457:1 21300:1
21127:1 26363:1 18678:1
14228:1 26845:1 28673:1
19951:1 8795:1
28027:1 12506:1 12343:1 8681:1 19631:1 8773:1 26518:1 16455:1
5820:1 22234:1 2370:1 17425:1 7196:1 18017:1
1813:1 14864:1 21390:1
13527:1 4832:1 7215:1 17825:1
17929:1 1225:1 25010:1 23141:1 7387:1 11585:1 13290:1
22860:1 3469:1 8213:1 7633:1 2137:1
20194:1 3569:1 25010:1 21983:1
310:1 14854:1 6644:1 14990:1 16015:1
15376:1 17312:1 1949:1 6361:1 15593:1
20135:1 12177:1 3569:1 10560:1 2137:1
13186:1 5300:1 23360:1 692:1 21799:1
15227:1 21613:1 22468:1 220:1
26457:1 14689:1 23837:1 18216:1
20560:1 13415:1 16823:1 9069:1
38:1 8426:1 28009:1 24728:1 16755:1
3319:1 21598:1 25191:1 17193:1
22847:1 25010:1 25886:1 4507:1
24465:1 23146:1 8753:1 24499:1 16155:1 16015:1 10987:1 25613:1
6818:1 23360:1 17525:1 20696:1 11792:1 16052:1 56:1 220:1
22848:1 877:1 10600:1 27632:1 16872:1 28065:1 22881:1
8451:1 8878:1 25766:1
9381:1 21995:1
17911:1 4149:1 18918:1 26518:1 21274:1
10614:1 14715:1 23945:1 19564:1 27745:1
22604:1 23837:1
26843:1 7645:1 28170:1 22960:1 4829:1
649:1 7971:1 25660:1 7412:1 15612:1 5738:1 2728:1 9853:1 3961:1 21416:1 4779:1
1775:1 20992:1 25801:1 9634:1 15605:1 18793:1
8730:1 7329:1 12942:1 27350:1 11272:1 13529:1
23141:1 1225:1 27:1 25010:1 10614:1
4850:1 25558:1 17425:1 7301:1 1252:1 7196:1
316:1 16382:1 2494:1
4150:1 9352:1 735:1
6741:1 23858:1 27327:1 22234:1 21513:1
4855:1 27696:1 22845:1 24499:1 3720:1
17172:1 7264:1 3186:1 24499:1 19129:1 28522:1 5510:1
10019:1 986:1 7615:1 3963:1
12445:1 13926:1 7916:1 18889:1
8878:1 23340:1 6368:1 19440:1 8685:1 21338:1 21613:1 9195:1 18608:1
3030:1 22604:1 12259:1
21367:1 686:1 25094:1 23733:1 14139:1
11728:1 18876:1 6592:1 14544:1 7215:1
19322:1 26604:1 2000:1 12702:1
20112:1 877:1 6361:1 7241:1 24499:1 26396:1
1642:1 24499:1 16015:1 22158:1 15237:1
4270:1 18084:1 14684:1 12172:1 23301:1 12280:1 8245:1 28439:1 17061:1 220:1 21651:1
25600:1 3360:1 8785:1 6326:1
26518:1 10857:1 15457:1 22960:1
38:1 22885:1 7146:1 2642:1
14343:1 26611:1
8818:1 7940:1 1642:1 877:1 17243:1
10742:1 5703:1 17793:1 25890:1
19091:1 6455:1 27420:1
15880:1 17083:1 55:1 10585:1
23513:1 20342:1 27091:1 7728:1 1659:1
38:1 27230:1 14154:1 16887:1 14917:1 22394:1
25633:1 12577:1 22848:1 24499:1 4819:1 18354:1
19881:1 2579:1 20491:1 3589:1
21424:1 26611:1 2020:1 26518:1 11807:1
2910:1 12917:1 11256:1 7941:1 23837:1
14305:1 22206:1 27420:1 20010:1 26497:1
19820:1 7412:1 17144:1 15802:1 3569:1 24499:1 18365:1 2121:1
10597:1 7335:1
1814:1 12471:1 27551:1 6328:1
25128:1 2579:1 12172:1
686:1 15253:1 3027:1 15387:1 28395:1 13691:1 28519:1
19322:1 28038:1 5082:1
1153:1 7812:1 28728:1 20724:1 21547:1 9639:1 15697:1 93:1
9594:1 15556:1 13472:1 6235:1
27446:1 8878:1 220:1 18977:1 20235:1
23013:1 6101:1 1019:1
107:1 7412:1 12726:1 13048:1 12651:1
25718:1 1442:1 17710:1 5766:1 24419:1
19322:1 16173:1 26604:1 7029:1 19323:1
14343:1 12085:1 25473:1 21354:1 3385:1 25600:1 3186:1 17876:1 12471:1 17351:1 12259:1
220:1 24838:1 22852:1 26748:1 27696:1 17275:1 21402:1 19015:1
5178:1 6436:1
2792:1 575:1 5820:1 28217:1
25301:1 21338:1 8878:1 17452:1 24499:1 12057:1
27105:1 19924:1 21954:1
26770:1 6371:1 9453:1 16923:1 3079:1 17241:1 19001:1
6235:1 16685:1 16478:1 42:1 19091:1 9898:1 28781:1
15227:1 11728:1 22468:1 220:1
24728:1 2197:1 9218:1 24459:1
7588:1 3361:1 12472:1 19129:1
22021:1 17231:1 1614:1 15113:1 26343:1 25802:1 20284:1
11916:1 200:1 24499:1 25303:1 3946:1 26625:1
3720:1 24967:1 877:1 19432:1 12954:1
7756:1 23379:1 22258:1 6494:1 14193:1 220:1
680:1 20992:1 26647:1 1907:1 27091:1
5439:1 25679:1 25319:1 15594:1 10444:1 7939:1 13148:1
10520:1 7504:1 26793:1 23837:1 527:1 5991:1 270:1
22876:1 4543:1 24236:1 7196:1 20948:1
24499:1 22885:1 7439:1 15984:1 5278:1
5797:1 24499:1 20446:1 5082:1 15836:1
7756:1 3569:1 3963:1
4128:1 5790:1 25010:1 15575:1 7150:1
22604:1 3823:1 7037:1 26205:1
19412:1 12947:1 26881:1 3914:1 23069:1 7615:1 5410:1
4755:1 21493:1 7348:1 13810:1 21879:1
1225:1 2120:1 220:1 14473:1
14389:1 15171:1 16609:1 24499:1 14715:1 16081:1
27965:1 26963:1 478:1 22757:1 28755:1
25010:1 22567:1 22960:1 16013:1 8675:1
19322:1 18365:1 21315:1
24499:1 21581:1 27519:1 23837:1 22583:1
26963:1 20194:1 8614:1
25900:1 19322:1 12932:1 20010:1
18608:1 24361:1 877:1 23418:1 28417:1 13887:1
7296:1 2137:1 8710:1
26963:1 18866:1 6661:1 22931:1 19549:1 2755:1 22757:1
11135:1 6594:1 16923:1 8356:1
9009:1 18306:1 15386:1 26478:1 13482:1 25077:1 11902:1
9976:1 877:1
18581:1 19129:1 25886:1
4415:1 2197:1 13493:1 19838:1
1255:1 23699:1 3668:1 3589:1 27489:1 19881:1 16200:1 26205:1
8582:1 20089:1 13055:1 10147:1 10146:1
18191:1 25886:1 20219:1 21452:1
1840:1 8660:1
13954:1 23858:1 12827:1 14689:1 1313:1
20344:1 8801:1 899:1
15452:1 7121:1 26881:1
12836:1 22206:1 23620:1 17364:1 18114:1
19432:1 21613:1 24499:1 4020:1 14910:1
26809:1 24499:1 3411:1 19165:1
28027:1 25262:1 16262:1 13654:1 20560:1 1840:1 11106:1 28161:1
10277:1 10551:1 9987:1 13482:1 20972:1
17411:1 13791:1 7040:1 8227:1
20329:1 3589:1
7735:1 4163:1 1889:1 25010:1 1557:1 8959:1
21613:1 3240:1 25059:1 26442:1
14111:1 14720:1 27056:1 28801:1 22881:1
6030:1 22881:1 3017:1 26189:1
24838:1 10673:1 19091:1
12711:1 25235:1 26518:1 3763:1
266:1 21050:1 3186:1 13951:1 25010:1 10444:1 27102:1
21174:1 18191:1 21571:1 22931:1 21274:1 8336:1 25886:1 16155:1 26721:1 13887:1 7814:1
12507:1 17975:1 22576:1 20592:1 7680:1 24572:1
10453:1 23837:1 19880:1 15836:1
21493:1 19091:1 25649:1
15836:1 18152:1 20976:1 22241:1
20959:1 18581:1 25886:1 1321:1
270:1 15802:1 7127:1 20512:1
20545:1 24957:1 6920:1 19277:1 24132:1
11386:1 18685:1 25697:1 19408:1
22847:1 23834:1 23829:1 11106:1 22293:1 24499:1
11815:1 28161:1 22357:1
20135:1 9461:1 23697:1 21390:1 15693:1
3319:1 20013:1 26205:1 13887:1
686:1 1666:1 27510:1 8477:1 21613:1 21350:1 16887:1 22960:1
20057:1 25689:1 14289:1
20992:1 1678:1 16085:1 7348:1
15972:1 22584:1 14926:1 22860:1 8457:1 27230:1
12417:1 12942:1 13693:1 6876:1 22293:1 24499:1
27082:1 11277:1 13744:1
10614:1 2370:1 19564:1 4018:1 24499:1 823:1
12193:1 19129:1 26379:1 25886:1
4755:1 21995:1 21319:1
15227:1 16183:1 15265:1 23141:1 1142:1 11585:1 820:1 20773:1
23598:1 5991:1 8133:1 22885:1
22860:1 3280:1 22757:1
13733:1 220:1 25451:1 10444:1 12049:1 6332:1
10424:1 27733:1 14689:1 7619:1
26611:1 6061:1 22268:1 26518:1 20048:1 18505:1
8193:1 16923:1 24982:1 20903:1
22530:1 17693:1 1309:1
20344:1 8193:1 11238:1 6235:1
1840:1 5502:1 13504:1 13482:1 15836:1
8378:1 24142:1 22158:1
8906:1 27311:1 16015:1 15465:1
21857:1 21338:1 2541:1
20511:1 8866:1 17113:1 432:1
7680:1 12471:1 16200:1 16666:1 7332:1 15140:1
19368:1 13037:1 27941:1
17016:1 12852:1 7348:1 12954:1 11079:1 10040:1 1312:1 14684:1 17666:1
21274:1 16744:1 13304:1
6093:1 16184:1 6823:1 18271:1
9238:1 15676:1
6565:1 1814:1 22860:1 680:1 22845:1 25234:1 28493:1 16081:1
27320:1 26604:1 22847:1 1297:1 877:1 21670:1 10754:1 13086:1
20418:1 26644:1 22931:1 17945:1 8480:1 15489:1
16620:1 26827:1 10444:1 20353:1
9228:1 25433:1 1538:1 17162:1 27521:1
23141:1 7667:1 12334:1 22410:1
18308:1 20816:1 1659:1 27896:1 12783:1 14013:1
4636:1 8400:1 7664:1 24180:1
14111:1 27016:1 1297:1 13858:1 14604:1
877:1 21613:1 27048:1 25010:1 23527:1 6875:1 11150:1
17810:1 4065:1 12605:1 14443:1 25890:1 27548:1
8336:1 7412:1 8906:1 12800:1 20560:1 23781:1
19322:1 1616:1 26379:1 21991:1 20662:1 24499:1 26271:1
7418:1 22258:1 5970:1
7842:1 25185:1 19338:1 2370:1 27809:1
28139:1 20859:1 10613:1 25010:1 26790:1 15642:1
11235:1 26648:1 3:1 22437:1 17868:1 20010:1 17666:1
6727:1 20569:1 23705:1 12172:1 3903:1
22885:1 27044:1 24499:1 27842:1
912:1 19784:1 14793:1 19246:1 19527:1
11823:1 16090:1 6849:1
24180:1 1161:1 21999:1 11167:1
6661:1 4819:1 25927:1
23141:1 21402:1
13113:1 23711:1 12651:1 7748:1 2679:1
2197:1 18591:1 4975:1
27808:1 13626:1 13046:1 25945:1 20295:1 10444:1
26457:1 2597:1 11700:1
18452:1 25236:1 22885:1
17143:1 5865:1 25278:1 26881:1
16458:1 2642:1 3720:1 15394:1 7748:1 7939:1
27638:1 27682:1 27473:1 9639:1
10162:1 17975:1 17998:1 7348:1 24499:1 15544:1 6326:1
10625:1 16767:1 20281:1 10695:1 18410:1 15642:1 14213:1 1976:1 12559:1
3297:1 9750:1 10237:1
28621:1 19015:1 18388:1 20982:1 10444:1 7820:1 23875:1
21263:1 25890:1 11818:1 18308:1 7348:1
26371:1 6253:1 18889:1 10613:1 13944:1 220:1 14016:1
18561:1 25495:1 877:1 12973:1 3569:1 3963:1 2121:1
22848:1 23013:1 6029:1 14854:1
19332:1 13533:1 17193:1 7504:1 5198:1 28812:1 25444:1 10134:1
17902:1 26061:1 21539:1
15140:1 2679:1
1209:1 27589:1 27411:1 19129:1
14343:1 11383:1 1642:1 11868:1
649:1 6000:1 23884:1 13482:1 5918:1 23703:1
19322:1 21392:1 12389:1
15697:1 10147:1 4715:1 12259:1
19322:1 15733:1 26644:1 2477:1
5775:1 28375:1 3361:1 26611:1 9465:1
14041:1 18841:1 22860:1 11987:1 16666:1 16681:1
13393:1 24499:1 16988:1 4239:1
11106:1 12973:1 22931:1 20413:1 16822:1 4458:1 24499:1 7748:1
10095:1 3127:1 18702:1 26477:1 2575:1 11277:1
25105:1 23128:1 21539:1
23422:1 4755:1 12471:1 9898:1 14994:1
1920:1 18889:1
4755:1 21995:1 24499:1 25679:1 2197:1 20148:1 220:1 16763:1
9333:1 18793:1 11929:1 14473:1
22847:1 24499:1 8628:1 17410:1 18608:1
21263:1 2642:1 16015:1
15063:1 20477:1 7619:1 2478:1
22643:1 14546:1 12057:1 4325:1
28027:1 11106:1 20485:1 387:1 25528:1
18278:1 3:1 25689:1 19631:1
1072:1 13871:1 18099:1 5703:1
19539:1 14693:1 23086:1 18271:1 24499:1 13858:1
3754:1 25633:1 17517:1 20010:1
8804:1 16367:1 21831:1 6309:1 12783:1
26048:1 26546:1 26611:1
4054:1 6464:1 5082:1
23141:1 26933:1 27709:1
22503:1 16666:1 3447:1 28791:1
25790:1 26611:1 7861:1 14560:1 20874:1 25010:1
21265:1 23037:1 24499:1 15722:1 25890:1 20972:1 5633:1
23527:1 22931:1 19503:1 649:1 8425:1 22139:1 1240:1 21213:1
19189:1 11106:1 24499:1 8495:1
7013:1 20281:1 4984:1 23834:1 22860:1 15325:1 2011:1 6606:1 759:1
22258:1 5300:1
17016:1 20586:1 13264:1 19129:1 24499:1 25581:1 26569:1
3280:1 24838:1 2197:1 17275:1 9166:1
10536:1 12606:1 16923:1 22721:1
25010:1 28744:1 264:1
20344:1 1072:1 26933:1
11815:1 18889:1 9060:1 13236:1 2530:1 25010:1 755:1 220:1
26360:1 15802:1 529:1 22895:1 25600:1 2462:1 6326:1
19505:1 2370:1 6222:1 23598:1 11079:1 10444:1 21350:1 1240:1 21340:1
10673:1 19824:1 19024:1
24499:1 16249:1 9549:1 21966:1 27230:1
15253:1 10614:1 7615:1 12652:1
6093:1 18220:1 22932:1 25886:1
10672:1 13926:1 5833:1 24653:1 16602:1
24339:1 23013:1 28198:1
4065:1 780:1 17235:1 22881:1 26963:1
22860:1 15448:1 27211:1 25679:1 12973:1 25128:1 19122:1 16763:1
9892:1 12545:1 646:1 12172:1 21651:1
24465:1 28214:1 28782:1 6803:1 23567:1
7432:1 8235:1 16072:1 19041:1 25789:1 15807:1
3466:1 5553:1 21338:1 20316:1 8133:1
2547:1 21926:1 17904:1 22469:1 28693:1
21613:1 25601:1 27603:1 4649:1
18306:1 7241:1 24180:1 18191:1 15465:1
3804:1 1655:1 15489:1 4975:1
11815:1 26403:1 15140:1 17276:1
19744:1 19412:1 18226:1 27065:1 20560:1 6235:1 7348:1
11807:1 13655:1 3605:1 2370:1 20773:1
7756:1 5903:1
8698:1 22847:1 25334:1 18505:1 359:1
24499:1 18204:1 7939:1 7348:1
6196:1 27521:1 1297:1 27070:1
19322:1 1258:1 1419:1 10613:1
19322:1 26604:1 19323:1
10519:1 9343:1 18882:1 24301:3
10444:1 22567:1 12172:1 18935:1
4558:1 3807:1 21654:1
7439:1 7941:1 5278:1 11818:1 24499:1 12312:1
20239:1 12209:1 13863:1 4620:1 25949:1 9898:1 20512:1
1930:1 22413:1 572:1 9982:1
23858:1 11096:1 24529:1 10444:1 23118:1 21525:1
1814:1 6514:1 438:1 15869:1
2260:1 2062:1 18068:1
25473:1 2028:1 19924:1 11703:1 13037:1 21459:1 14389:1
26048:1 20418:1 2316:1 17210:1
14111:1 1072:1 11818:1 8320:1
22131:1 13114:1 95:1 7301:1 7196:1
27160:1 16711:1 24128:1
686:1 27080:1
26469:1 26467:1 2586:1 6618:1 20706:1
26280:1 4870:1
18386:1 24088:1 26107:1 2245:1
669:1 21427:1 17998:1 27497:1 3720:1
28027:1 24258:1 3027:1 23128:1 17172:1 21613:1 6159:1 942:1 18220:1
15452:1 28744:1 7121:1 3305:1
15997:1 4599:1 17666:1
751:1 11400:1 15039:1 17515:1 28525:1 5201:1 5484:1
26360:1 18824:1 26518:1 7842:1 24529:1
10551:1 15908:1 5563:1
9594:1 25633:1 23733:1 2530:1
686:1 22333:1 877:1 23676:1 3720:1 6514:1
15167:1 20518:1 18608:1 23884:1 8741:1
1723:1 21493:1 26611:1
18403:1 7040:1 877:1 10753:1
9976:1 4150:1 18444:1 23037:1 24499:1 20972:1
12942:1 23444:1 16178:1 16884:1 2989:1
11155:1 10559:1 24459:1
10806:1 26363:1 13:1 1518:1
5932:1 7257:1 3328:1 22362:1 5198:1 24499:1 28540:1
8748:1 1539:1 3484:1 7183:1
23998:1 24499:1 14582:1 4789:1 14168:1 21954:1 25234:1 23527:1 6235:1
12272:1 12471:1 25600:1 16856:1 28624:1 5646:1
24682:1 2197:1 105:1
1225:1 11566:1 3569:1 25010:1 12550:1 21513:1
14111:1 4146:1 6705:1 24499:1 6235:1
25128:1 22612:1 21390:1 8493:1
21658:1 14106:1 6545:1 28673:1 26518:1 25797:1
16767:1 17710:1 26748:1 22208:1 24499:1 11405:1
5775:1 8681:1 1814:1 16190:1 10569:1
5327:1 19153:1 16954:1 28141:1
3752:1 4564:1
24499:1 2143:1 14940:1 5532:1
28009:1 21417:1 11815:1 21165:1
19170:1 19134:1 21149:1 9083:1
9490:1 3978:1 9639:1 24180:1
2174:1 17876:1 13599:1 25600:1
21274:1 21831:1 7348:1
5047:1 23705:1 13086:1 20908:1
21424:1 10600:1 23705:1 27842:1
2015:1 22251:1 22931:1
20135:1 6741:1 15063:1 16090:1 13579:1 21963:1
21394:1 23450:1 25789:1 14990:1 26379:1
15468:1 7504:1 25128:1 23781:1 19122:1 21390:1
12831:1 20992:1 14550:1 11566:1 3569:1 23329:1
10597:1 24129:1 13666:1 9639:1
5447:1 26941:1 6326:1 20840:1
23015:1 16767:1 12259:1 12394:1
18220:1 24499:1 25301:1 10742:1 15843:1
26847:1 15807:1 14689:1 7348:1
2121:1 17730:1 20175:1 20178:1 17932:1 24247:1 15288:1 220:1
2547:1 200:1 8581:1 7411:1
5140:1 27955:1 20094:1 9634:1 16015:1 10742:1
24623:1 5225:1 12636:1 10277:1 25802:1 12286:1 25010:1
26992:1 5142:1 22881:1
25308:1 7939:1 15489:1 9166:1
27941:1 21265:1 12942:1 14990:1 11744:1
2547:1 22721:1 24499:1 19564:1 1080:1
25900:1 20401:1 14198:1 4195:1 6876:1 24907:1 13926:1 25886:1 10489:1
20863:1 21831:1 20186:1 28526:1
22161:1 12471:1 7504:1 270:1 6516:1 16681:1 15266:1 11079:1
20418:1 28397:1 26189:1 6792:1 18195:1 18759:1 24499:2 12471:1 20773:1
15612:1 15040:1 13843:1 12471:1 16943:1 22357:1 26273:1 20214:1 972:1 21736:1 28676:1 18230:1
795:1 18347:1 14501:1 1150:1 15594:1 7348:1
20976:1 7728:1 13926:1 26502:1 24499:1 15997:1 13086:1 22418:1
3811:1 28009:1 22931:1 20948:1
2792:1 2530:1
26604:1 26631:1 3411:1 17562:1 21954:1
22860:1 4289:1
27013:1 6066:1
11823:1 1976:1 19305:1 26903:1
11233:1 12471:1 12942:1 3186:1 1522:1 10444:1 4779:1 6235:1 27935:1
5443:1 13632:1 7680:1 3013:1 19322:1
18581:1 21831:1 20326:1
2910:1 20122:1 12471:1 20683:1 15083:1 14212:1
8943:1 12942:1 24630:1 26189:1 28126:1 12259:1 16916:1 7737:1
9772:1 19761:1 5082:1
6902:1 27425:1 12193:1 15594:1 9898:1 19129:1
5678:1 15802:1 26518:1 6947:1 24180:1
9461:1 10685:1 14391:1 10433:1
14684:1 14926:1 18306:1 3017:1 5107:1 19880:1 8685:1
28009:1 25707:1 17193:1 10982:1 5738:1 24499:1 23472:1 10140:1
23160:1 14037:1 16212:1 1297:1 529:1 26360:1 13556:1
4558:1 2299:1 4150:1 22931:1 19838:1 8410:1
13475:1 27249:1 3186:1 22715:1 10444:1 20019:1 14509:1
10673:1 3361:1 270:1 10508:1 10444:1 3245:1
4806:1 26818:1 25444:1
492:1 26786:1 11179:1
23705:1 986:1 15442:1
25007:1 18066:1 3361:1 23884:1 8493:1 12259:1
20418:1 14684:1 8582:1 9323:1
13655:1 15997:1 3245:1 220:1
4434:1 20070:1 14842:1 25128:1 21265:1 10444:1 18691:1
12471:2 25670:1 10444:1 3720:1 25619:1 4829:1 13062:1
4108:1 7040:1 6000:1 16802:1 4163:1 9613:1
4806:1 17411:1 9120:1 4435:1 27732:1
21658:1 12982:1 20555:1 4757:1 23475:1 14306:1
22847:1 25558:1 22931:1 4507:1 11106:1 25191:1 25886:1
22604:2 2058:1
8449:1 2162:1
26604:1 15802:1 7728:1 8107:1 3816:1 7619:1 24180:1
3973:1 22234:1 8710:1 20421:1
22368:1 22847:1 20992:1 24849:1
23457:1 16200:1 27230:1 13171:1
20194:1 4764:1 26478:1 25954:1
11646:1 18355:1 877:1 22230:1 23703:1
18549:1 15416:1 10277:1 16923:1 18105:1 2579:1 27160:1 25857:1 24499:1 9453:1
2956:1 5981:1 18068:1 1614:1 17310:1 6249:1 2011:1
18277:1 877:1
11019:1 19564:1 16991:1 8681:1 16200:1 22757:1
20418:1 3475:1 3919:1 18207:1 10444:1 220:1 11449:1
13046:1 23991:1 11405:1
7648:1 16208:1 25191:1 95:1
21274:1 12172:1 23037:1 24499:1 11154:1 2662:1
20112:1 23216:1 26518:1 18320:1 24529:1
19923:1 7113:1 25945:1
14111:1 14720:1 577:1 3569:1 12593:1
5327:1 14684:1 14689:1 11022:1 11114:1
13655:1 15063:1 22357:1 26845:1 22206:1 16249:1 10766:1 9375:1 16015:1
17076:1 17113:1 27171:1 12895:1 26860:1 11079:1
6818:1 13655:1 510:1 16052:1 24358:1 5510:1
19836:1 16590:1 28755:1
25007:1 23089:1 3589:1 16015:1 17834:1
16385:1 25974:1 26467:1 24433:1
19225:1 17425:1 17788:1 2579:1 10444:1 20298:1
20344:1 3385:1 22583:1 14443:1
21149:1 7939:1 10077:1 4612:1
17656:1 23418:1 2755:1 4643:1
18306:1 23084:1 11256:1 14728:1 3605:1
2878:1 13527:1 20144:1 21831:1 14389:1
6104:1 205:1 17086:1 3569:1 23294:1 6326:1
8582:1 14117:1 14910:1 21340:1 10444:1 3710:1 14854:1
22139:1 16271:1 18581:1 25301:1 28522:1
1757:1 5300:1 6431:1 10339:1 18126:1 27272:1 4426:1 17666:1
8638:1 20156:1 27069:1 25802:1 4504:1 7842:1 27855:1 3090:1 2062:1
23418:1 8219:1 8291:1 9602:1
28027:1 26016:1 16708:1 18845:1 24499:1 13926:1 18579:1 28392:1
15253:1 24997:1 7254:1 23553:1 17347:1 18365:1 28296:1 15069:1
22258:1 5300:1
18306:1 18452:1 14693:1 8748:1 1614:1
26963:1 28365:1 18172:1 13654:1 3720:1
1225:1 25010:1 23141:1 21265:1 24035:1 21350:1
4048:1 20992:1 9453:1 6371:1 7110:1 4163:1
4426:1 22304:1 4684:1 1394:1 18126:1 759:1 220:1
16155:1 12852:1 23733:1 4702:1 8928:1
14693:1 11384:1 19564:1 23037:1 20810:1 14325:1
19984:1 3725:1 20326:1 12371:1
28645:1 8660:1 21831:1 7504:1 28487:1
5509:1 21613:1 4922:1
21203:1 22881:1
4434:1 27035:1 19880:1 24180:1
10058:1 18306:1 3975:1 5424:1 13452:1
13687:1 1077:1 28491:1
18067:1 6640:1 26132:1 22881:1 25871:1
1517:1 3361:1 15780:1 16667:1
24128:1 1118:1 21264:1
28755:1 28599:1 12827:1 13207:1 13857:1
6323:1 1678:1 5981:1 2203:1
15714:1 15257:1 9888:1
4216:1 3867:1 25905:1 14817:1
28217:1 8863:1 15997:1 4142:1 10780:1
12471:2 7290:1 26545:1 14064:1 14983:1 2855:1
11728:1 9421:1 17511:1 16373:1 2494:1
18581:1 5825:1 12915:1 21831:1 22083:1
7748:1 3978:1 24967:1 4439:1 8581:1 14817:1
10647:1 8193:1 2137:1 10077:1 22855:1
24623:1 5225:1 18702:1 22885:1 20987:1 21613:1 23598:1 2628:1 10742:1
20344:1 5115:1 27272:1
10444:1 19653:1 2214:1 10766:1 20418:1
17018:1 18913:1 18686:1 2121:1
25007:1 12148:1 22453:1 357:1
26786:1 771:1 8804:1 10927:1 9551:1
21274:1 4484:1 10083:1 17339:1 219:1 3827:1 27921:1 863:1
14178:1 28009:1 27211:1 19564:1 26440:1 27675:1 24499:1 18220:1 220:1 13639:1
8949:1 15297:1 24732:1 7615:1
14111:1 2174:1 9338:1 7196:1 27230:1
16033:1 4434:1 19288:1 27035:1 26001:1
28217:1 27742:1 13055:1 266:1 10779:1
28395:1 17058:1 24859:1 27499:1 20413:1
1908:1 22251:1 7728:1 4415:1
20874:1 3569:1 14470:1 14473:1 28755:1
4806:1 27732:1 24040:1 3127:1
3409:1 10444:1 15309:1 19679:1
23387:1 20863:1 6644:1 4449:1
14815:1 27310:1 24499:1 12942:1 6230:1
16358:1 13057:1 15376:1
26611:1 24499:1 28654:1 773:1 26673:1 19151:1 14562:1 5452:1
24258:1 24236:1 2597:1 13722:1 19771:1
23967:1 771:1 27998:1 18539:1 4163:1
20354:1 3400:1 17666:1
6456:1 20326:1 15593:1
15556:1 13055:1 3823:1
14624:1 7412:1 6235:1 14986:1 10499:1
2430:1 3447:1 11989:1
12417:1 24028:1 20316:1 11000:1
3569:1 8495:1 3963:1 24434:1
3099:1 6253:1 22451:1 24434:1 24922:1 4389:1 220:1
16085:1 17876:1 24584:1 20025:1 14443:1
14197:1 4531:1 13575:1 8483:1 21493:1 24593:1
16563:1 21613:1 9166:1
15836:1 13342:1 1295:1 22304:1
28418:1 6514:1 26328:1 24370:1
21810:1 26588:1 24173:1
2174:1 14854:1 28053:1 9166:1
1840:1 19322:1 23153:1 25128:1
25433:1 2579:1 17425:1
19495:1 23619:1 14735:1 2232:1 12057:1 28291:1 2316:1
26843:1 2523:1 15517:1 28328:1 12819:1 3589:1
26457:1 12819:1 10140:1
13161:1 8203:1 26518:1 1563:1 9294:1
20401:1 6358:1 1678:1 23598:1 2094:1 10444:1 14103:1
8943:1 10614:1 28416:1 18661:1 26604:1 9898:1 16717:1 220:1 877:1
20059:1 2755:1 16717:1 7335:1
20572:1 24499:1 18583:1 7412:1 14198:1 24907:1 10444:1 220:1 22960:2
954:1 25621:1 21407:1
18191:1 15417:1 8946:1 15465:1
16:1 26845:1
24453:1 8449:1 24584:1 23474:1 22816:1 23841:1
20863:1 3569:1 1401:1 25886:1
12800:1 10508:1 22855:1 13921:1
26471:1 2579:1 11514:1
38:1 9208:1 19924:1 24465:1 22394:1
11694:1 10576:1 10742:1
16085:1 20560:1 1297:1 23431:1 6644:1
23781:1 21390:1 18452:1 6703:1
5035:1 28597:1 13482:1 3720:1
24057:1 3000:1 16682:1
9407:1 20271:1 15274:1 2328:1 12286:1 1771:1
10625:1 457:1 26611:1 1744:1
9796:1 2112:1 10597:1
8706:1 2772:1 10520:1 10444:1 220:1 2074:1
9594:1 22531:1 1499:1
19322:1 12726:1 16455:1 1814:1 24499:1 7815:1 22881:1
5678:1 26963:1 1899:1 22931:1 24499:1 16155:1
18351:1 5115:1 2642:1 5620:1
22258:1 20560:1 21613:1 17324:1 10742:1 15869:1 13639:1
26611:1 8701:1 10266:1 15976:1
23657:1 19946:1 5129:1 5593:1
13223:1 26518:1 4649:1 12564:1
9639:1 24805:1 24499:1 25886:1 2738:1 9166:1
22933:1 877:1
12511:1 3447:1 24335:1 24205:1 19901:1 8983:1 24499:1 5593:1
12852:1 19788:1 2581:1 17664:1 2738:1 10444:1 10314:1
9333:1 28395:1 8336:1 7861:1 23781:1 6431:1
14550:1 11303:1 20982:1 27946:1 18143:1
18847:1 220:1 15443:1 27701:1 4601:1 26804:1 28522:1 5320:1
20344:1 12852:1 21831:1
22584:1 11218:1
746:1 19221:1 19440:1 24107:1
297:1 9946:1 17666:1
3578:1 6000:1 20056:1 15237:1
20344:1 23160:1 17033:1 13887:1 24499:1 19682:1
25010:1 27519:1 2121:1 5563:1 21402:1
9527:1 26518:1 5950:1
19744:1 3385:1 12471:1 16445:1 14064:1 24499:1 2143:1 7348:1
8943:1 19091:1 9898:1 22881:1
26701:1 105:1 3763:1 3051:1 660:1 8048:1 26518:1 25256:1
22473:1 19243:1 8493:1
26694:1 14550:1 27808:1 2527:1 14256:1
10891:1 159:1 24180:1
28027:1 21610:1 20992:1 2121:1 20353:1 10140:1
24499:1 2541:1 26379:2
18191:1 17450:1 1118:1
18847:1 19216:1 24509:1 28755:1
25105:1 24529:1 25010:1 23733:1
28302:1 19322:1 18168:1
15452:1 15594:1 25890:1 12807:1 23490:1
3752:1 24371:1 2112:1 12259:1
28027:1 28621:1 12852:1 21402:1 22158:1 10214:1 26363:1 220:1 25613:1
9594:1 26646:1 220:1 22960:1 13422:1
4755:1 17686:1 13452:1 22230:1 16763:1
11750:1 19412:1 23711:1 14148:1
25087:1 16681:1 10520:1 7504:1 15297:1
15082:1 26611:1 23858:1 24572:1 14842:1 3720:1
7648:1 4366:1 12800:1 3569:1 21149:1 9631:1
105:1 1297:1 28208:1 22726:1 4423:1 24499:1
7168:1 12852:1 2738:1 13869:1
26102:1 19122:1 1779:1 24003:1
17740:1 19468:1 20194:1 24751:1
12545:1 12524:1 24499:1 7508:1 15706:1 27521:1
10019:1 28030:1 24001:1
25032:1 17210:1 8968:1 11439:1
5204:1 10485:1 1709:1 11238:1
14099:1 19858:1 24499:1 2062:1
22860:1 9498:1 14807:1 23769:1
16666:1 16991:1 19879:1 2990:1
11207:1 4732:1 23705:1
21381:1 10036:1 8205:1
4507:1 22847:1 22234:1 9809:1 17193:1 11281:1 23131:1 8451:1 24499:1 8742:1
7013:1 21610:1 5308:1 2508:1 8696:1 23475:1 22619:1 24499:1 24459:1
11309:1 9325:1 2215:1
20706:1 16262:1 25558:1 28161:1
9539:1 7795:1 17533:1 20308:1
17917:1 5844:1 2075:1 23211:1 7676:1 11520:1 27251:1
2771:1 14746:1 26604:1 14990:1 7748:1 3293:1
14343:1 9639:1 27941:1 14990:1 26379:1
2956:1 20560:1 26363:1 9265:1
8059:1 3361:1 8365:1 23598:1 26518:1 6235:1
5678:1 20560:1 8204:1 22931:1 21340:1
26963:1 14085:1 24123:1 14451:1 27591:1 23141:1 22258:1 10374:1
20131:1 3411:1 5970:1 18172:1 25780:1
20344:1 7105:1 8535:1
2137:1 680:1 26644:1 7348:1
12384:1 7648:1 23705:1 21354:1
12942:1 26007:1 15530:1 22604:1 21274:1
28391:1 5404:1 28522:1 23282:1 16271:1 4482:1 5563:1 13639:1
6763:1 6792:1 26363:1 21549:1 7939:1
22885:1 23598:1 22392:1
20418:1 28755:1 391:1
12783:1 8205:1
19960:1 14715:1 9676:1
28021:1 25767:1 5981:1 24465:1 5738:1
22453:1 17033:1 23141:1 10508:1 11585:1 23778:1
15594:1 15802:1 25905:1 9467:1
25057:1 7102:1 23705:1
4415:1 28522:1 6371:1 13415:1 16097:1 19880:1 7728:1
15054:1 8015:1 24057:1 5278:1 17514:1 13483:1 24499:1 16155:1 7439:1 220:1 16081:1
14128:1 4032:1 20996:1 27188:1 21443:1
14343:1 24838:1 25455:1 5398:1 25618:1 1938:1
3411:1 3836:1 7930:1
26374:1 7412:1 9166:1
24269:1 25886:1 25052:1 26189:1
24291:1 14854:1 12096:1 18271:1
1442:1 22806:1 4995:1 15432:1 18008:1 24038:1 27086:1
20344:1 4072:1 7298:1 143:1
10520:1 3484:1 7335:1 13663:1
17952:1 15420:1 13540:1 17339:1
26963:1 17138:1
20271:1 10444:1
15452:1 21621:1 4859:1 22895:1
20344:1 16856:1 6326:1 5965:1 9166:1
7168:1 28315:1 13075:1 916:1 15836:1
4591:1 3046:1 15147:1 7348:1
12545:1 25846:1 25192:1 19338:1 6230:1 27521:1
795:1 5820:1 4966:1 1313:1 21613:1 15594:1
6020:1 1499:1
15445:1 23705:1 13086:1 25748:1
5566:1 19869:1 4235:1 10569:1 21613:1 23475:1
20418:1 18210:1 18207:1 14339:1 24499:1 15489:1
10242:1 5439:1 14531:1 22132:1 10444:1 13300:1 9461:1
24899:1 2370:1
7439:1 12279:1 20491:1 17804:1 5278:1 23454:1 3569:2 24499:1 23598:1 2121:1
24499:1 14728:1 28284:1 23111:1 24092:1
15054:1 877:1 220:1 26861:1 17514:1 25039:1 10067:1 6326:1 12654:1 3720:1
24413:1 12471:1 4163:1 8072:1 23216:1 7759:1
3569:1 18874:1 577:1
12286:1 16588:1 26363:1
25558:1 10647:1 2434:1 17311:1 25886:1
23858:1 15579:1 25334:1 220:1 4755:1
17145:1 18636:1 21265:1 27425:1
10625:1 14213:1 12985:1
26843:1 4214:1 4779:1
24529:1 17172:1 220:1 23939:1 7110:1 24499:1 22960:1 8183:1
9296:1 25905:1 8493:1
19165:1 18686:1 10482:1 20298:1
2945:1 297:1 5300:1 14064:1
18847:1 26457:1 23458:1
22750:1 5981:1 16200:1 19122:1 14828:1
1435:1 19189:1 1240:1 22757:1
15714:1 6654:1 1616:1 21991:1 24499:1 18122:1 7348:1
14081:1 24499:1 9063:1 17884:1 4163:1
5108:1 16037:1 1642:1 8863:1 2050:1 14128:1 24499:2 21464:1 2121:1
4059:1 718:1 16155:1
1920:1 1499:1
23269:1 18068:1
19322:1 28516:1 13926:1 22960:1
19322:1 660:1 17462:1 2429:1 24499:1 28697:1
17834:1 17241:1 6309:1 2738:1 8361:1
23141:1 27016:1 9639:2 17666:1 11585:1 6326:1
1435:1 25128:1 23940:1 8664:1 12750:1
23858:1 6534:1 877:1 8768:1 8681:1 847:1 24499:1
6020:1 1499:1
14350:1 577:1 3569:1 14189:1 7348:1
129:1 3447:1 5740:1 24180:1
19322:1 942:1 24868:1 9301:1
24811:1 3411:1 2157:1 1240:1 22895:1
22161:1 24499:1 21103:1 12471:1 2579:2
20270:1 26611:1 27327:1 14139:1
4149:1 5052:1 24499:1 25991:1 3605:1 21292:1
25128:1 26963:1 21265:1 24777:1 24499:1 25693:1 2551:1
17975:1 25294:1 23984:1 17113:1
2107:1 13398:1 19225:1 23837:1 1814:1 4734:1 877:1
6198:1 18557:1 5930:1 2909:1 5378:1 14752:1
2197:1 17128:1 8698:1 24967:1 27272:1 20010:1
24269:1 27521:1 9413:1 3913:1
7680:1 21265:1 11256:1 24499:1 12932:1 7348:1
4128:1 11721:1 17324:1
2579:1 15402:1
6001:1 12471:1 14991:1 27740:1 4163:1
782:1 2121:1 18839:1 22954:1
26109:1 9898:1 10652:1
11566:1 9639:1 21831:1
23374:1 27899:1 8685:1 4500:1 25827:1
7210:1 6086:1 7141:1 22970:1 8589:1 13300:1
25192:1 17848:1 23705:1 19924:1 25879:1
26189:1 24108:1 24499:1 1349:1 25456:1 28522:1
297:1 7728:1 8581:1 24180:1
5439:1 2197:1 16991:1 7196:1
19322:1 23773:1 22728:1 1072:1 12934:1 18365:1
11566:1 18086:1 310:1
6818:1 8906:1 9245:1 2681:1 23598:1 16280:1 24465:1
18009:1 6534:1 18412:1 10444:1 24465:1 1755:1
11620:1 25010:1 27621:1 8660:1 16666:1
9352:1 24046:1 15593:1
3209:1 16587:1 877:1 220:1 3720:1
14178:1 11719:1 16085:1
21424:1 18271:1 25558:1 16208:1 20235:1
7168:1 12852:1 2738:1 9359:1
26409:1 21265:1 4080:1 14185:1 7348:1
21226:1 17710:1 20736:1 3264:1 12286:1
2261:1 1732:1 16013:1 19126:1
14073:1 20281:1 25761:1 20549:1 14128:1 21149:1 3051:1 27352:1 22960:1
26786:1 1775:1 2197:1 7993:1 12259:1
7687:1 2238:1 1297:1 17212:1 4198:1
22895:1 21121:1 4163:1 27709:1 17231:1
1976:1 7412:1 24572:1 5327:1 16104:1 12259:1
6876:1 13655:1 1560:1 12954:1 11874:1 20308:1 27200:1 12049:1 17777:1 17666:1
5678:1 15280:1 14068:1 22437:1 17234:1 13887:1
20344:1 677:1 6661:1
4558:1 1417:1
1225:1 21613:1 12852:1 26446:1
3245:1 17876:1 2137:1 26904:1 210:1
1840:1 8133:1 7481:1 14058:1 16747:1 16249:1 15836:1
17028:1 28161:1
12149:1 13926:1 20923:1 16230:1
14111:1 8426:1 16681:1
23204:1 26061:1 4819:1 23111:1
25094:1 7939:1 21340:1
12845:1 13522:1 16155:1 7412:1
12764:1 24217:1
12932:1 15237:1 25013:1
14343:1 21407:1 12259:1
20129:1 1723:1 19122:1 1343:1
20721:1 16783:1 10520:1 13926:1 28359:1
21114:1 2128:1 4477:1
10764:1 28522:1 4163:1 10625:1 8959:1 24465:1
8681:1 24499:1 6661:1 3447:1 23837:1
7242:1 686:1 24499:1 16155:1 1093:1
5553:1 1297:1 19277:1
8927:1 22258:1 13791:1 16478:1
20376:1 27921:1
4149:1 18793:1 19159:1 12685:1
18365:1 24563:1 7504:1
2642:1 6676:1 15706:1
27382:1 16923:1 482:1 24977:1 19129:1 14016:1
28417:1 1723:1 16249:1 15499:1
3244:1 8698:1 13926:1 3191:1 25770:1
28621:1 28009:1 10560:1 16015:1
6876:1 8193:1 4693:1 26908:1 11704:1 18155:1
22969:1 22206:1 10766:1 7107:1 14117:1
14111:1 21639:1 28642:1 14926:1
220:1 22869:1 12965:1 8681:1 16200:1 24791:1 3827:1 10394:1 27086:1 12471:2 11022:1 15432:1 26447:1 27375:1 1277:1
14594:1 5626:1 21651:1 22927:1
10360:1 1458:1 1450:1
26469:1 24883:1 21831:1 14016:1
26963:1 19959:1 12471:1
21274:1 14389:1 3051:1
26590:1 21647:1 24499:1 28009:1 12973:1
358:1 4810:1 19835:1 16208:1 19129:1 5823:1
19739:1 5449:1 25600:1 17431:1 11233:1 17358:1
1297:1 8202:1 12177:1 7504:1 2121:1
5465:1 5578:1
10849:1 54:1 20194:1 11022:1 15616:1 10444:1 10101:1
27349:1 6006:1 5620:1
28027:1 19611:1 25010:1 13641:1
4755:1 9333:1 19870:1 18009:1 1814:1 10742:1 20148:1
27013:1 18308:1 3305:1 1716:1
13873:1 14693:1 535:1
14550:1 9864:1 7748:1 1882:1
15227:1 10600:1 21831:1 10101:1 24108:1
8402:1 14330:1 7829:1 19061:1
4065:1 23409:1 8133:1 15836:1
22234:1 24584:1 15237:1 12172:1
10614:1 17042:1 5809:1 18365:1 28522:1
18452:1 3411:1 12471:1 17664:1 20326:1
23858:1 8670:1 220:1 4755:1
686:1 17241:1 10444:1 19225:1 3186:1 19468:1 15991:1 12471:1 11585:1 2659:1
18191:1 1297:1 26518:1 22268:1
26518:1 19129:1 25991:1
27729:1 23868:1 8493:1
7481:1 4446:1 18743:1
11750:1 12969:1 22139:1
23366:1 9549:1 4789:1 16342:1 27992:1 20967:1 15616:1 24499:1 26721:1 220:1 23020:1
16221:1 22847:1 28599:1
20976:1 26079:1 28715:1 19564:1 25945:1
13270:1 17975:1 10527:1 24499:1 23601:1 3631:1 5249:1 13680:1 22960:1 22394:1
14111:1 7678:1 10625:1 5709:1
19322:1 16478:1 9898:1 2177:1 2942:1 3748:1 816:1
20135:1 15297:1 11896:1 16681:1
28621:1 20560:1 18388:1 20285:1 21127:1 17517:1
27918:1 24615:1 12471:1 14848:1 20010:1 3186:1 2945:1 11298:1 28525:1 7348:1
22392:1 1526:1 17517:1 26442:1 8344:1
8748:1 2837:1 3411:1 14503:1 1614:1
14819:1 20354:1 17666:1
6396:1 15630:1 4133:1 3421:1 27109:1 9461:1 25574:1 14527:1
5580:1 8193:1 17324:1 1207:1
11566:1 6621:1
19551:1 834:1 22960:1
13046:1 9957:1 2197:1 27782:1 5089:1
28027:1 4801:1 23153:1 24712:1 3579:1 16155:1
12462:1 26933:1 7676:1 8581:1
21392:1 5703:1 25318:1 24499:1 10444:1 12057:1
11882:1 19873:1 24414:1
22994:1 13452:1 7087:1 14351:1 767:1 1077:1 9458:1
10017:1 9892:1 5553:1 3411:1 18220:1 7842:1
26933:1 14693:1 22894:1
20344:1 9772:1 1225:1 12911:1 2975:1 22885:1 6930:1
24499:1 15602:1 28188:1
7585:1 18328:1 10980:1 3051:1 10569:1 24499:1 15997:1 22258:1 220:1 24129:1
16214:1 23457:1 24499:1 21893:1 9371:1
26418:1 12942:1 7007:1 15166:1 4591:1 16072:1 10444:1 16155:1 220:1 20773:1
21048:1 3569:1 10694:1 2662:1
4128:1 12471:1 21010:1 13857:1
21002:1 8660:1 19691:1 2834:1 22931:1
15699:1 27165:1 17819:1
186:1 26350:1 4933:1 753:1
6020:1 1499:1
28673:1 12606:1 10416:1 7748:1 9898:1 28798:1 11436:1 18348:1 20976:1 8998:1 24499:1 16085:1 220:1 9893:1
7128:1 532:1 12471:1 13926:2 26013:1
24499:1 5224:1 15576:1
6818:1 15556:1 10040:1 23198:1 220:1 16052:1 8945:1 17387:1 25010:1 13415:1
22860:1 15132:1 9772:1 14828:1 26518:1 387:1
22847:1 20194:1 2738:1 12694:1 25886:1 494:1
10549:1 1038:1 15685:1
10058:1 10796:1 28021:1 877:1 8857:1 24180:1
18845:1 25010:1 12172:1 18505:1 20773:1
7748:1 14990:1 8466:1 14386:1
7877:1 17206:1 111:1 9120:1 5720:1 220:1 11245:1
15449:1 7728:1 24529:1 23141:1 24499:1 8804:1 11585:1
245:1 7348:1 8681:1
24777:1 3266:1 2508:1
10424:1 26051:1 28645:1 26079:1
4540:1 8215:1 7168:1 21493:1 5524:1 21292:1
20425:1 2579:1 20836:1
18155:1 6:1 4369:1 16085:1 12973:1
2547:1 21274:1 762:1 21983:1
17455:1 11719:1 9052:1 17032:1 7842:1
2107:1 20992:1 6797:1 13210:1 10374:1 13821:1 1814:1 24303:1 8582:1 1616:1 20277:1 18702:1 8219:1 7348:1
1280:1 5566:1 3361:1 14281:1 22090:1 22619:1 25757:1
686:1 12726:1 17622:1 1118:1 15465:1
16884:1 23884:1 26379:1 16316:1 20089:1 24499:1
5198:1 19737:1 18020:1 17666:1 14828:1 16015:1 9533:1
10444:1 27468:1 558:1 753:1
28027:1 26649:1 21831:1 7348:1
26847:1 26644:1 14926:1 17777:1 19277:1
24301:3 5903:1 15432:1 23015:1 27086:1 27420:1
3411:1 877:1 7348:1
8906:1 15650:1 6926:1 11219:1
8374:1 11565:1 2137:1 15449:1
23141:1 14550:1 21914:1 14910:1
6643:1 417:1
22852:1 23457:1 11998:1 3288:1 220:1 17666:1
1874:1 619:1 2329:1 28643:1 2218:1 10444:1 20773:1
5865:1 20156:1 28613:1 15094:1 26189:1 6644:1 3090:1
4423:1 19539:1 16842:1 24499:1 20135:1
20860:1 7972:1 27185:1 5990:1 2218:1
18765:1 11493:1
14854:1 21417:1 9166:1
6740:1 1814:1 18714:1 4629:1 5452:1
23160:1 1225:1 25010:1 24967:1 21736:1
9009:1 7329:1 10329:1 5833:1 18306:1 17095:1 10444:1 3433:1
27621:1 2579:1 15420:1 17193:1 13970:1 23141:1 13046:1 10374:1 11585:1 28439:1
38:1 3797:1 9810:1 22931:1
2945:1 23834:1 7348:1
7152:1 27558:1 24584:1 21670:1 23186:1
17339:1 20560:1 1103:1 19129:1 27591:1
17007:1 5198:1 19122:1 24991:1 8857:1
2384:1 21390:1 13452:1
5509:1 21113:1 12259:1 28478:1 24434:1
1072:1 20586:1 5930:1 27425:1 17963:1 26025:1
21274:1 28342:1 5082:1 28479:1
1100:1 2555:1 17275:1 6564:1 16709:1
20344:1 877:1 23703:1 27346:1 26098:1 5510:1
13318:1 23837:1 1600:1
2260:1 3484:1 2062:1 1499:1
14103:1 22960:1
19412:1 25890:1 7007:1 2174:1
17975:1 18581:1 20194:1 27419:1 15616:1 21149:1 1727:1 22206:1
25845:1 24499:1 23146:1 2112:1 26379:1
3921:1 28626:1 3186:1 6249:1 1614:1 10951:1
7316:1 14763:1 16452:1 13255:1 10444:1 24499:2 13926:1 11233:1 220:1 20903:1
27621:1 25261:1 15495:1
28758:1 12726:1 17834:1 14242:1
15297:1 6120:1 16430:1 18170:1 7412:1 1727:1 21149:1
11386:1 26061:1 11026:1 6965:1
28027:1 21274:1 23457:1 9909:1 1976:1
20271:1 105:1 24459:1
21195:1 26845:1 7298:1 21974:1 8190:1
11823:1 10551:1 6568:1 3578:1 3017:1
21831:1 7545:1 12471:1 27373:1 6302:1
21390:1 20326:1
26604:1 21831:1 13493:1 2642:1 27217:1
21240:1 11445:1
4755:1 21274:1 1976:1 15802:1 21993:1 25886:1 24180:1
4270:1 2197:1 10522:1
20976:1 22604:1
19901:1 26611:1 3447:1 15642:1
19420:1 22860:1 12022:1 3605:1
1553:1 27463:1 15678:1 14199:1 18309:1 8219:1
25236:1 5099:1 15420:1 17113:1
8745:1 25128:1 7204:1 22394:1
6741:1 23967:1 14281:1 20316:1 4163:1
5678:1 3280:1 16958:1 23572:1 19129:1
782:1 20928:1
23965:1 13749:1 8133:1 11359:1 23141:1 22885:1 11585:1
24499:1 6326:1 2484:1 5965:1
680:1 25192:1 25621:1 22931:1 24434:1
21379:1 14689:1 16646:1 20830:1 20518:1
11170:1 7348:1 16015:1 24465:1 14854:1
8943:1 25275:1 2642:1 19492:1 18831:1 21831:1
17902:1 21274:1 1297:1 16682:1 3884:1 12177:1 26239:1
1225:1 10019:1 26518:1 18555:1 13887:1
6418:1 1499:1
10615:1 23008:1 20676:1
1149:1 25789:1 11384:1
15616:1 27094:1
3886:1 1757:1 24361:1 877:1 19954:1 11079:1 24499:1 22881:1 6431:1
27402:1 20194:1 21513:1 14990:1
6689:1 28487:1 14891:1
4801:1 11540:1 2197:1
12853:1 1019:1 27874:1
11750:1 25444:1 15594:1 14828:1
22860:1 1976:1 2197:1 22206:1
6705:1 26793:1 19564:1 20545:1 21691:1 8451:1 23037:1
26418:1 24499:1 27887:1 3447:1 21144:1 1723:1 26518:1 18505:1 5866:1
20135:1 5439:1 13186:1 8401:1
14343:1 5327:3 12471:2 15058:1 22206:1
20162:1 19263:1 2677:1
24367:1 7649:1 28387:1 6660:1
9052:1 979:1
20390:1 24071:1 6823:1 19129:1 10974:1
25845:1 17917:1 7545:1 8742:1 6171:1 10816:1
14699:1 28676:1 24459:1 7748:1 7648:1
19247:1 17974:1 20798:1 19122:1 22221:1 7348:1
28528:1 2141:1 21402:1 24434:1
6818:1 17525:1 15260:1 13926:1 7676:1 16455:1
20010:1 11619:1
21602:1 21338:1 19811:1 14538:1 9053:1 5485:1
5992:1 27035:1 1297:1 14256:1 11969:1
15227:1 38:1 22468:1 220:1
11807:1 12920:1 17525:1 24581:1
27044:1 270:1 13300:1 19986:1
15297:1 15556:1 7936:1 14689:1 8291:1 13668:1
22119:1 16358:1 4599:1
3699:1 22234:1 4507:1 11969:1
3569:1 11328:1 16798:1
19421:1 22885:1 5528:1 12172:1 4239:1
26786:1 7032:1 2197:1 28261:1 19784:1 10444:1 7196:1
22860:1 21274:1 9827:1 9324:1
21621:1 15869:1 21876:1 15910:1 3051:1
16681:1 2486:1 7504:1 13641:1
27650:1 12237:1 4065:1 9244:1 21613:1 15495:1 17533:1
7329:1 15328:1 7220:1 13820:1 5198:1 22681:1 10444:1 7376:1
26963:1 20111:1 26604:1 25192:1 26181:1 22253:1 25886:1
21912:1 8681:1 7029:1 23837:1
24499:1 21409:1 20484:1 17144:1 22596:1
15452:1 5981:1 11150:1 19880:1
19322:1 8193:1 12186:1 13556:1 1253:1 15031:1
17975:1 5115:1 5300:1 12237:1 17998:1 3893:1
912:1 22278:1 28359:1 13186:1 12280:1 7939:1 19129:1
19567:1 24499:1 9620:1 3887:1 3605:1
7916:1 24499:1 17172:1 3589:1
3569:1 12557:1 6292:1 7619:1
26843:1 9595:1 6825:1
784:1 2584:1 27425:1 3447:1 24465:1
15297:1 14185:1 13735:1 26793:1 5920:1 27301:1 7196:1
18365:1 25318:1 27589:1 7090:1
12468:1 18967:1 16923:1 16197:1 24499:1 17449:1
18306:1 25600:1 13655:1 2604:1 7412:1
7599:1 9639:1 2137:1 14064:1
16504:1 13585:1 7423:1
16175:1 23329:1 19564:1 8361:1
20135:1 11823:1 13655:1 19122:1 13641:1
14111:1 18876:1 27112:1 13046:1 7215:1
19679:1 25236:1 21350:1 22689:1 28251:1 20021:1 11079:1
10600:1 21831:1 206:1 4789:1 9333:1 7241:1 915:1 11546:1
28461:1 1072:1 10600:1 14550:1 5198:1 24991:1 23421:1 4755:1
10901:1 17339:1 12001:1 21265:1 14848:1 24834:1
11562:1 7412:1 7168:1 22258:1 24499:1 22881:1 24180:1
21274:1 15376:1 20736:1 877:1
25527:1 23602:1 3447:1
8664:1 10742:1 17865:1
3569:1 7001:1 1019:1
22234:1 24584:1 27709:1 13335:1 20579:1 25890:1 20773:1
5841:1 15140:1 15309:1 16666:1
28461:1 4755:1 10693:1 22258:1 6920:1
13926:1 4163:1
6020:1 1499:1
27929:1 1209:1 24499:1 19902:1 21483:1
19858:1 19322:1 3569:1 26604:1 25156:1
24529:1 22960:1 9594:1
2461:1 11637:1 8581:1 7546:1
22945:1 3241:1 2642:1
20560:1 11815:1 15333:1
9390:1 22847:1 24499:1 7504:1 28642:1
25192:1 23251:1 241:1 301:1
22848:1 4216:1 28284:1 22757:1
21991:1 270:1 1077:1 1616:1 15465:1
15130:1 25558:1 23454:1 11288:1 10990:1 8801:1
7412:1 9453:1 19320:1 25697:1 4847:1
17932:1 28053:1 13887:1 4606:1
26604:1 4678:1 24681:1
4806:1 14779:1 7040:1 12852:1 13482:1
10978:1 15836:1 3447:1 17666:1
7316:1 5173:1 15140:1 16903:1 22726:1 15697:1 11233:1 11742:1
21993:1 25128:1 21935:1 19151:1 5871:1 15489:1
6955:1 26061:1 3411:1 1297:1 27521:1
8927:1 11096:1 15489:1 22931:1 19549:1
16200:1 12726:1 15465:1
5783:1 25558:1 7939:1
11980:1 2229:1 7728:1 13887:1 22067:1
20162:1 10614:1 11608:1
19425:1 6368:1 3579:1 15530:1 3411:1 14306:1
28302:1 6358:1 28106:1 8667:1 19946:1 9639:1 9509:1 25846:1
19322:1 24057:1 4028:1 16478:1
28027:1 11106:1 24499:1 823:1 527:1
8748:1 28114:1 1909:1 21002:1
28664:1 10569:1 16033:1 19617:2 17884:1
17689:1 23383:1 877:1 1614:1 21991:1 17476:1 10444:1 9459:1 17666:1
38:1 127:1 19348:1 4507:1 6876:1 11076:1 22234:1
26371:1 4649:1 20453:1 13639:1 23527:1 14848:1 25886:1
19847:1 25689:1 20937:1
3186:1 12237:1 12471:1 19412:1 20982:1 20518:1 10560:1 27521:1
20135:1 3361:1
14343:1 15063:1 5809:1
3186:1 847:1 19001:1 3191:1 1499:1
7592:1 9513:1 1870:1
14345:1 10444:1 22860:1 12009:1 9899:1 5042:1 220:1 2366:1
10055:1 22847:1 11694:1 12286:1 3234:1 11154:1 11969:1
15980:1 23705:1 1283:1 23837:1 877:1
14946:1 16155:1 12953:1
2039:1 25785:1 1822:1 6703:1 12172:1
28421:1 11566:1 12852:1 27946:1 7599:1
9771:1 14990:1 14746:1 26101:1
17917:1 2197:1 8409:1 26379:1 10588:1 24307:1
14112:1 16950:1 21613:1 10551:1 11079:1 321:1 10742:1 7348:1
3115:1 5082:1 15616:1 14546:1 3102:1 21651:1
26604:1 24385:1 25601:1 19129:1
20773:1 23963:1 18328:1 26379:1 18889:1 5449:1 15642:1 24499:2 20025:1 7348:1
25879:1 11383:1 19129:1 220:1 16478:1
25010:1 25380:1 220:1 28420:1
21274:1 15489:1 26360:1
10147:1 2197:1 2214:1 3328:1 7412:1 1727:1 1466:1
26400:1 26604:1 3226:1 10089:1 3777:1
9465:1 6927:1 7504:1 20010:1
10597:1 22931:1 10615:1 14081:1 95:1 11465:1
10997:1 19129:1
6776:1 2062:1
24540:1 5179:1 7007:1 22860:1 5199:1 19129:1 27375:1
23705:1 20326:1 14154:1
15227:1 21995:1 13482:1
12932:1 11735:1 10444:1 19277:1 5966:1 7348:1
5449:1 1066:1 14817:1 12651:1
21144:1 6230:1 18271:1
1814:1 15078:1 18450:1 7619:1
10614:1 25261:1 15559:1
24502:1 19262:1 20773:1 2011:1 21746:1
11646:1 2197:1 5620:1 25890:1
16175:1 19984:1 5720:1 2121:1
25105:1 15376:1 17317:1 2739:1
686:1 21536:1
7013:1 17975:1 3411:1 2128:1 2956:1 8980:1 24499:1 28755:1
686:1 24499:1 528:1
14111:1 463:1 25558:1 7939:1
11257:1 22141:1 45:1 6282:1
13926:2 12471:1 22139:1 16987:1 19880:1
11274:1 10673:1 17241:1 23527:1
18847:1 25707:1 3484:1 13008:1 19105:1 11079:1
17150:1 7112:1 4150:1 10260:1 5398:1 22258:1 8356:1 220:1
26963:1 2197:1 2755:1 16923:1 19709:1
18377:1 24499:1 12942:1 19561:1 6876:1
15714:1 164:1 24451:1
14729:1 26611:1 2197:1 8290:1 22953:1
14111:1 21274:1 28755:1 28027:1 26189:1
14946:2 15996:1 21881:1 11896:1
20162:1 10614:1 22081:1
6198:1 387:1 27384:1 19880:1 27429:1
8076:1 916:1 17595:1 830:1 27311:1 15616:1 2517:1 4677:1
20773:1 3191:1 17710:1 27837:1 13970:1 2810:1 22670:1 24913:1 12364:1 11089:1
18721:1 9003:1 2642:1 11078:1 1763:1
16606:1 2015:1 8133:1 14854:1
10266:1 3435:1
13567:1 27551:1 7215:1 20676:1
9957:1 9639:1 11815:1 7504:1 5198:1 2579:1 21390:1 24991:1 18155:1
28673:1 28009:1 22234:1 14828:1 26518:1
28027:1 649:1 15013:1 1297:1 27700:1 3245:1 21484:1 27521:1
16155:1 7935:1 12852:1 3756:1 11114:1
3186:1 1757:1 9982:1 1225:1 8681:1 26518:1 24615:1 6431:1
3569:1 10560:1 5563:1
28318:1 3911:1 23473:1 8914:1 10370:1 10444:1 17034:1 28781:1
21226:1 1775:1 23210:1 24499:1 2797:1 12259:1
4776:1 8193:1 17243:1 26679:1
26363:1 9639:1 12471:1 9535:1 13196:1
19323:1 13951:1 15869:1 2642:1 8190:1
8943:1 9639:1 23373:1 19869:1 22860:1 11041:1 24499:1
26604:1 15386:1 15638:1 9166:1
16175:1 21755:1 26604:1 22860:1 18579:1
6818:1 16052:1 25874:1 22469:1 6920:1 4819:1 7348:1
23008:1 25558:1 18889:1 24499:1 16200:1 5398:1 2985:1
15976:1 12172:1 1840:1 10551:1 19129:1 14854:1
13556:1 22753:1 12471:1 22638:1
5300:1 23239:1
3569:1 16112:1 26315:1 1938:1
10036:1 8133:1 6004:1 19924:1
8336:1 19412:1 8854:1 7939:1 898:1
28027:1 6620:1 13046:1 8133:1 19612:1 5484:1 2089:1 2649:1 18308:1
24529:1 21995:1 17172:1
26518:1 2214:1 13482:1 8292:1 10082:1
10206:1 2174:1 25192:1 15594:1 15466:1 24465:1
5327:1 16472:1 25890:1
12852:1 14345:2 10444:1 6875:1 21350:1 21319:1 7983:1 21451:1 25319:1 1814:1 1240:1 16763:1
28528:1 7667:1 12172:1
7241:1 16033:1 14990:1 7748:1 22512:1
7756:1 3036:1 12726:1 6107:1 12009:1
26843:1 751:1 3869:1
5678:1 11926:1 9228:1 14111:1 27521:1 2645:1 18505:1 7319:1
15556:1 692:1 18135:1 18306:1 22258:1 14325:1 491:1 25318:1 20773:1
2197:1 18258:1 891:1 17945:1 21513:1 7728:1
38:1 28359:1 942:1 7193:1 13632:1 13639:1 4381:1
24325:1 27077:1 686:1 7141:1 1618:1 24499:1 3720:1
21274:1 2197:1 23829:1 16577:1
19766:1 7412:1 898:1
26933:1 17231:1 13482:1 22258:1 8681:1 10444:1 4444:1 23705:1
3385:1 2197:1 8930:1 18889:1 22116:1 5823:1 7648:1 1287:1
22470:1 1782:1 5148:1 1723:1
10089:1 19811:1 14538:1 16923:1 7728:1
19421:1 12730:1 12932:1
28027:1 22885:1 1150:1
19744:1 18009:1 17834:1 3589:1 19822:1 7842:1 6309:1
9549:1 2919:1 10283:1 22604:1 220:1 12259:1
17810:1 6309:1 26508:1 27311:1 8291:1
25505:1 18505:1 9166:1
19322:1 12836:1 14515:1
10525:1 1663:1 1297:1 1485:1
28218:1 8292:1 26199:1 10444:1 20010:1 12783:1 2603:1
12148:1 15989:1
26786:1 24236:1 6930:1 24957:1 25927:1 7348:1
24572:1 4810:1 4543:1 24325:1 16249:1 7196:1
20059:1 13494:1 11160:1
7348:1 20736:1 18850:1 11343:1 18691:1
8748:1 20561:1 3361:1 17666:1
21476:1 25324:1 24499:1 6029:1 12915:1
6644:1 22931:1 26838:1 25444:1 24499:1 7619:1
16983:1 20928:1 10614:1 21651:1
26604:1 20959:1 9304:1 22026:1
5678:1 21274:1 12823:1 1297:1 25945:1 14111:1 9898:1 16842:1 23705:1 17007:1
12852:2 12726:1 25435:1 11154:1 23552:1 7107:1 6965:1
28027:1 26963:1 12726:1 25846:1 25318:1 22881:1 14842:1
8324:1 21613:1 27350:1
22804:1 12172:1 27874:1 7301:1 3569:1 7196:1 577:1
6093:1 5781:1 26612:1 7814:1 25886:1
7118:1 12471:1 13046:1 3186:1 15836:1 8681:1 13772:1 9052:1 895:1
4558:1 14809:1 3447:1 11712:1 3605:1 17588:1 20773:1
5524:1 28506:1 13857:1
6664:1 7823:1 10684:1 1938:1 17666:1
7680:1 3447:1 19838:1 1840:1 7241:1 24499:1
18847:1 25633:1 16717:1
1775:1 4861:1 22895:1 12259:1
10742:1 4149:1 24499:1 1118:1 23118:1
16037:1 26363:1 1339:1 7728:1 19001:1 9425:1
10673:1 15376:1 3589:1 7728:1 17834:1
17639:1 23714:1 2642:1 23423:1
18306:1 8193:1 14064:1 11728:1 14910:1 25879:1
11694:1 27211:1 387:1
38:1 3385:1 19651:1 21613:1 9187:1 19959:1 12384:1 3569:1
28009:1 20976:1 24584:1 21204:1 24499:1 525:1 823:1
26469:1 5089:1 10597:1 24425:1 15836:1
23328:1 8906:1 7215:1 2121:1 25586:1 8511:1 28744:1 22960:1
24849:1 21277:1 10600:1
25217:1 10479:1 27591:1
25021:1 16763:1 25972:1
38:1 15297:1 23913:1 21831:1 15836:1
23988:1 6542:1 26016:1 3903:1 5833:1 15642:1 24499:1 7348:1
28281:1 7411:1 9325:1 28163:1
13527:1 3361:1 19631:1 2579:1 19129:1 11079:1
17666:1 20010:1 22778:1
16827:1 19539:1
1309:1 7577:1 20502:1
3186:1 23153:1 10954:1 16031:1
4558:1 10433:1
12726:1 26478:1 2062:1 17410:1 5413:1
9238:1 15676:1
26932:1 8193:1 2491:1
25940:1 14971:1 9525:1
24944:1 15672:1 16155:1 10615:1 21443:1
21424:1 6644:1 12173:1
28302:1 17945:1 11529:1 7468:1 14854:1
22931:1 12954:1
18306:1 20518:1 23586:1 12172:1
8886:1 19653:1 21445:1
19332:1 22206:1
7087:1 2105:1 12827:1 8804:1 12172:1
2129:2 3466:1 13556:1
7462:1 9453:1 1854:1 22761:1 8675:1 21525:1 25547:1
4636:1 14751:1 12259:1 18308:1 10573:1
20545:1 24057:1 13055:1 17757:1
26604:1 17974:1 877:1 6093:1 13725:1 3720:1 20628:1 25547:1
25007:1 2174:1 26840:1 28114:1 24499:1 15255:1 3720:1
24584:1 12942:1 24947:1
18009:1 15662:1 7728:1
19322:1 22885:1 20366:1
16155:1 16923:1 6464:1 601:1
19187:1 1814:1 20021:1 16085:1 7939:1 5101:1
3385:1 4003:1 1313:1 1855:1 24142:1 10742:1 7748:1
12148:1 2197:1 24912:1 28782:1 15737:1
22721:1 13488:1
6342:1 10090:1 11619:1 10863:1 26579:1
14343:1 1907:1 20252:1 2137:1 10444:1
12514:1 19249:1 20736:1 6326:1 28485:1
11386:1 20560:1 11815:1 2370:1
4806:1 7040:1 12471:1 22418:1 17884:1
14085:1 9639:1 22931:1 23141:1 8660:1 8219:1
14305:1 22258:1 10199:1 10560:1 27759:1
1225:1 26271:1 25619:1 2783:1 22543:1
22860:1 25812:1 19129:1
24499:1 16637:1 16035:1 1161:1 16714:1 16642:1 26845:1
6705:1 10597:1 18702:1 13312:1 12865:1
18204:1 11106:1 13046:1 3048:1 23837:1
1920:1 18889:1
2547:1 2137:1
19187:1 20586:1 5626:1 105:1 19564:1
8426:1 17332:1 7348:1 862:1 15961:1 27558:1 24499:1 16370:1 28724:1
2579:1 7425:1 5199:1 18889:1
10444:1 8530:1 16481:1 24459:1
10239:1 15489:1
27929:1 4214:1 14990:1
14946:1 14847:1
1775:1 13858:1 12259:1 7663:1 26205:1 22418:1
11386:1 382:1 27311:1 18068:1 3725:1 1395:1 21888:1
2579:1 15445:1 22654:1 28397:1 12668:1
9110:1 26546:1 15836:1 1814:1 24108:1
11815:1 23340:1 27855:1 5703:1
14378:1 2015:1 10927:1 877:1 3720:1
10146:1 22885:1 23598:1 26849:1 22960:1 7348:1
686:1 14869:1 12172:1 9498:1 16033:1 11585:1
23146:1 8133:1 17073:1
21212:1 24499:1 26691:1 1920:1 9052:1
2008:1 20976:1 5010:1
24529:1 21995:1
20281:1 18995:1 13452:1 21246:1 8804:1 17834:1 3589:1
3944:1 17937:1 14986:1 6801:1 3052:1 6302:1 26867:1
16155:1 5378:1 20903:1
10424:1 270:1 2755:1 24944:1 22648:1
26165:1 24499:1 21831:1 9639:1 6219:1
6086:1 19771:1 28030:1 2316:1
4214:1 23260:1 2121:1 5300:1
4505:1 15697:1
24569:1 13046:1 784:1 7504:1 13926:1 6282:1
22808:1 22847:1 18549:1 3630:1
11641:1 16729:1
1775:1 27025:1 5866:1 1723:1 14967:1 12259:1
18847:1 17942:1 4149:1 5554:1 17998:1 6326:1
19322:1 7648:1 23325:1 15206:1 15594:1 16481:1
11562:1 8425:1 3361:1 23489:1 24180:1
12177:1 5970:1 601:1 1283:1
22860:1 23832:1 14689:1 23837:1 19332:1
11455:1 14828:1 23837:1
14693:1 23086:1 10664:1 16478:1 24499:1 9898:1 19091:1
16015:1 11110:1 15237:1
26554:1 15434:1 9882:1 18932:1 3752:1 3361:1 3608:1
19322:1 28026:1 769:1 27521:1
14178:1 22530:1 6368:1 10661:1 15706:1 16455:1
3717:1 1723:1 11969:1
2956:1 11235:1 14383:1 2137:1 10508:1
19564:1 28781:1 25591:1 16953:1 3086:1 24499:1 220:1
9333:1 1814:1 877:1 6930:1
20560:1 10673:1 13887:1 28540:1 598:1
24777:1 3266:1 2508:1
25691:1 12636:1 11841:1 877:1 8681:1 3186:1 23457:1 10753:1
1072:1 14689:1 12266:1 2328:1 21127:1 24499:1
7756:1 10600:1 6794:1 18364:1
15356:1 10673:1 22855:1 16585:1
28009:1 25558:1 24584:1 23834:1
4423:1 12802:1 21893:1 2197:1 27241:1
15417:1 14185:1 1297:1 23353:1 6335:1
8449:1 19348:1 3753:1
17808:1 23519:1
7756:1 23744:1 1738:1 7728:1 22960:1
7470:1 17177:1 12668:1 2137:1 14684:1 16015:1 14016:1
7939:1 23837:1
28417:1 3303:1 28633:1 9528:1
9069:1 27272:1 7728:1 3752:1 12259:1
3579:1 12875:1 23153:1 6326:1
24325:1 2137:1 22453:1 6496:1 17694:1
21964:1 2370:1 5632:1
15280:1 23366:1 8493:1 24236:1 13632:1 24499:1 26447:1 11031:1
18239:1 23572:1 22251:1 28375:1 24499:1 19132:1
4819:1 23111:1 22315:1
15468:1 12846:1 24499:1 15802:1 16807:1
11969:1 11348:1 18230:1 21050:1 6093:1 24499:1 1287:1
7756:1 11317:1 27496:1 27352:1 14089:1
6140:1 12471:1 5224:1
28027:1 21613:1 7774:1 8511:1
12514:1 19412:1 7615:1 13304:1
14550:1 15376:1 24499:1 23705:1 28670:1
21220:1 8850:1 28522:1 28586:1
9238:1 27621:1
1109:1 18959:1 18068:1 28395:1
22761:1 19025:1 5988:1 10465:1 12992:1 15648:1 26893:1
1757:1 10370:1 10444:1 1538:1 8298:1 6431:1
2547:1 381:1 4649:1 2203:1
10569:1 6020:1 16190:1
25601:1 2642:1 21735:1 14854:1
22258:1 21204:1 12172:1
8748:1 16864:1 26098:1
7439:1 16842:1 24499:1 26845:1 6326:1 24180:1
11386:1 130:1 7648:1
23608:1 13325:1
10855:1 21539:1 23527:1
12471:1 12947:1 2755:1 19924:1 22931:2
14882:1 11807:1 17070:1 22638:1
20135:1 23890:1 25558:1 2541:1 19549:1
16353:1 22126:1
20322:1 18306:1 14437:1 19488:1 7348:1
28025:1 18191:1 10661:1 19122:1 22221:1
2956:1 7412:1 4956:1 23837:1 26604:1 20560:1 15187:1 2467:1 24465:1 7348:1
28059:1 24499:1 19129:1 6794:1 7468:1
23666:1 13655:1 25010:1 1616:1 542:1
28535:1 751:1 19903:1 4306:1 2150:1 5995:1 13887:1
5236:1 7215:1 10146:1 3569:1 13853:1 14306:1
19045:1 26165:1 12545:1 20326:1 20773:1
8681:1 24944:1 8193:1 5452:1 22960:1
13655:1 11065:1 25934:1 10731:1
20821:1 1297:1 14197:1 23037:1 24499:1 12625:1 21651:1 13887:1 6920:1
5678:1 21274:1 7439:1 5231:1 26189:1 527:1 16842:1 24499:1 7241:1
10536:1 4702:1 17033:1 4599:1 22287:1
5554:1 18083:1 20465:1 26461:1 9461:1 27109:1
10673:1 9639:1 6326:1 12590:1
27697:1 22296:1 19714:1 2642:1
28461:1 4755:1 9594:1 22960:1 24529:1
22848:1 15868:1 19893:1
23836:1 7301:1 7398:1 21613:1 24499:1 26845:1 10742:1
15933:1 649:1 10857:1 3763:1
26604:1 12148:1 759:1 2197:1 2370:1
23458:1 877:1 4163:1 20045:1 8959:1 28456:1 28755:1
22258:1 3973:1 24499:1 25301:1 26210:1
22860:1 16666:1 26518:1 9613:1
7756:1 23379:1 9595:1 11619:1 4163:1 11288:1 23967:1 5142:1 23037:1 220:1
1775:1 21940:1 17875:1 13529:1 6458:1 24499:1 12259:1 9159:1
22860:1 14730:1 1798:1 16983:1
27494:1 21539:1
11790:1 27524:1 15489:1
26932:1 11383:1 19314:1 26216:1
21613:1 21265:1 28715:1 19564:1 25945:1
8263:1 22354:1 16015:1 24173:1
23366:1 11464:1 7728:1 9777:1 7348:1
8133:1 11022:1 2196:1 15039:1
26701:1 13908:1
24777:1 3266:1 2508:1
7798:1 10597:1 7335:1 25010:1
8847:1 9161:1 6545:1
24236:1 26881:1 28359:1 26963:1 19129:1 18230:1
12851:1 10444:1 28359:1 7348:1
6274:1 3:1 21265:1 2370:1 16763:1
2137:1 18927:1 13055:1 20830:1
17241:1 25182:1 8863:1 28311:1
20379:1 18627:1 28522:1
6640:1 8272:1 14689:1 25016:1
7680:1 7504:1 21771:1 28634:1
2174:1 3569:1 22234:1 17425:1 28519:1
18581:1 21204:1 18932:1 2484:1 14064:1 22258:1 7939:1 13452:1
11089:1 8203:1 21264:1 23837:1 874:1
27468:1 20992:1 27810:1 2067:1
25601:1 5981:1
20344:1 4072:1 6713:1 13037:1 8219:1 27272:1
1225:1 19994:1 23884:1 22158:1 11089:1
15013:1 12920:1 13887:1 10828:1 24581:1 12370:1
4755:1 4149:1 21995:1
27780:1 12722:1 3447:1 11256:1 4195:1
14343:1 2974:1 9371:1 11801:1 26112:1
2547:1 7241:1 17803:1 2575:1 9490:1
25591:1 11325:1 877:1
14501:1 22206:1 2121:1 15465:1
28328:1 22410:1 21359:1 18648:1 7107:1 5484:1
20912:1 20904:1 1074:1 26850:1 8185:1 2579:1 12471:1 10761:1
8660:1 4163:1 28487:1 12259:1
26646:1 22960:1
20877:1 17415:1 1461:1 19564:1 15452:1 24499:1
15038:1 11592:1 7196:1 13654:1 24154:1
17150:1 17172:1 12964:1 22158:1 25600:1 22860:1 9853:1 2530:1 220:1 10738:1
5225:1 24019:1 11704:1
24572:1 21504:1 10508:1 25599:1
13843:1 26963:1 12471:1 19211:1 9527:1
28580:1 6644:1 111:1 16033:1 20010:1 4863:1
16072:1 14386:1 15490:1
11170:1 1518:1 25890:1 17034:1
23858:1 3411:1 13588:1 23864:1
7522:1 9166:1 22258:1 19129:1 13171:1
25507:1 26673:1 3401:1
26786:1 18260:1 4354:1 26477:1 3031:1 10444:1 2855:1
13114:1 17138:1 4861:1 7842:1 18388:1 21327:1 23020:1
16024:1 6301:1 2121:1 13482:1
28027:1 27700:1 7640:1 2642:1 20676:1 15933:1 5524:1 18648:1 7396:1 18308:1
23998:1 6620:1 20560:1 15084:1 15891:1 10100:1
4974:1 17710:1 2462:1 23297:1 7348:1
14675:1 13693:1 12954:1
17730:1 19884:1 22258:1 25866:1 12406:1 2662:1
1225:1 10673:1 16520:1 1118:1
38:1 23374:1 7632:1 7842:1 4632:1 8685:1
13970:1 877:1 16311:1 23703:1
19322:1 1280:1 18561:1 877:1 20560:1 20545:1 1029:1 16033:1 3720:1
2624:1 27327:1 16681:1
4806:1 1316:1 1619:1 15700:1 850:1
9772:1 24499:2 25591:1 19129:1 220:1
6020:1 1499:1
27550:1 26546:1 8133:1 13381:1
14343:1 12471:1 5609:1 11619:1 7196:1 5224:1
11235:1 24499:1 26648:1 20859:1 22287:1 26604:1 3861:1 4599:1 23329:1
20089:1 15802:1 5995:1
20366:1 18308:1 6632:1 23874:1 18306:1 11559:1 8804:1
8655:1 8356:1 28237:1 14389:1
21525:1 23008:1 28676:1 16013:1
18934:1 11483:1
4149:1 19360:1 21651:1 19564:1
20560:1 14064:1 17949:1 25879:1 23834:1
14684:1 24499:1 8523:1 10569:1 23726:1 9595:1 12022:1 3681:1 27091:1 7348:1
17605:1 28027:1 9982:1 1225:1 1339:1 18126:1 4426:1
11386:1 15989:1 1313:1
9218:1 23140:1 7676:1 13492:1
2329:1 679:1
14111:1 26363:1 24071:1
13527:1 13046:1 21613:1 1297:1 12235:1 18244:1
12299:1 13654:1 4975:1
17963:1 9898:1 23834:1
